10
100 1
0.000000	0.000000	0.000000	0.000000	0.000000	0.000000	0.000000	1.000000	0.953274	0.000000	0.398733	0.000000	0.000000	0.000000	0.000000	0.000000	0.000000	0.000000	0.000000	0.000000	0.000000	0.000000	0.000000	0.000000	0.000000	0.000000	0.000000	0.000000	0.000000	0.000000	0.000000	0.000000	0.000000	0.143018	0.000000	0.000000	0.000000	0.000000	0.000000	0.000000	0.000000	0.000000	0.000000	0.000000	0.000000	0.000000	0.000000	0.000000	0.000000	0.000000	0.000000	0.000000	0.000000	0.000000	0.000000	0.000000	0.000000	0.000000	0.000000	0.000000	0.000000	0.000000	0.000000	0.000000	0.000000	0.000000	0.000000	0.000000	0.000000	0.000000	0.000000	0.000000	0.000000	0.000000	0.000000	0.000000	0.000000	0.000000	0.000000	0.000000	0.000000	0.000000	0.000000	0.000000	0.000000	0.000000	0.000000	0.000000	0.000000	0.000000	0.000000	0.000000	0.515213	0.000000	0.000000	0.000000	0.000000	0.000000	0.000000	0.000000	
100 1
-0.129555	-0.054919	-0.014830	0.006209	0.016423	0.020502	0.021170	0.411808	0.564099	0.846724	0.877119	0.991364	1.031242	1.029034	0.997497	0.946510	0.883541	0.814108	0.742214	0.670700	0.601526	0.535987	0.474880	0.418633	0.367402	0.321146	0.279690	0.242769	0.210061	0.181218	0.155882	0.133700	0.114335	0.143573	0.140638	0.133417	0.121747	0.108324	0.094733	0.081812	0.069956	0.059312	0.049887	0.041617	0.034407	0.028146	0.022725	0.018042	0.014002	0.010520	0.007521	0.004940	0.002720	0.000810	-0.000832	-0.002244	-0.003459	-0.004503	-0.005401	-0.006173	-0.006837	-0.007409	-0.007901	-0.008324	-0.008689	-0.009003	-0.009274	-0.009508	-0.009710	-0.009884	-0.010035	-0.010166	-0.010280	-0.010378	-0.010464	-0.010539	-0.010604	-0.010661	-0.010711	-0.010756	-0.010795	-0.010830	-0.010861	-0.010888	-0.010913	-0.010935	-0.010956	-0.010974	-0.010991	-0.011007	-0.011021	-0.011035	0.254760	0.324557	0.343677	0.337474	0.316995	0.289457	0.259311	0.229184	
100 1
0.000000	0.000000	0.000000	0.000000	0.000000	0.000000	0.027555	0.000000	0.187252	0.000000	0.066118	0.103507	0.075717	0.000000	0.170823	0.539828	0.000000	0.037706	1.000000	0.000000	0.186186	0.230512	0.000000	0.000000	0.189388	0.000000	0.000000	0.317078	0.000000	0.000000	0.031461	0.000000	0.000000	0.000000	0.308135	0.355544	0.000000	0.000000	0.000000	0.000000	0.055644	0.000000	0.000000	0.190200	0.540790	0.000000	0.265764	0.213826	0.000000	0.000000	0.000000	0.000000	0.173350	0.000000	0.000000	0.101841	0.000000	0.000000	0.000000	0.000000	0.049081	0.446198	0.073977	0.000000	0.141825	0.000000	0.000000	0.000000	0.439510	0.132579	0.191925	0.000000	0.000000	0.000000	0.000000	0.000000	0.000000	0.000000	0.345344	0.000000	0.000000	0.000000	0.000000	0.084883	0.050682	0.006787	0.000000	0.000000	0.000000	0.000000	0.000000	0.000000	0.000000	0.000000	0.327497	0.000000	0.000000	0.000000	0.000000	0.186714	
100 1
-0.129555	-0.054919	-0.014830	0.006209	0.016423	0.020502	0.024627	0.031120	0.084366	0.130039	0.145074	0.169819	0.197345	0.213437	0.234024	0.385794	0.503222	0.538814	0.679745	0.903600	0.937363	0.954564	0.991004	0.983566	0.948889	0.930490	0.889234	0.859274	0.848772	0.810509	0.762786	0.713276	0.660745	0.609112	0.621464	0.651429	0.677598	0.665153	0.635916	0.597542	0.560860	0.525202	0.489126	0.493660	0.589348	0.660404	0.675432	0.696816	0.715574	0.701354	0.671020	0.632250	0.613738	0.594057	0.563738	0.543466	0.526621	0.502642	0.470368	0.429579	0.388085	0.461266	0.525487	0.551481	0.546484	0.552927	0.530960	0.494306	0.529829	0.584205	0.609948	0.640499	0.636617	0.611091	0.570942	0.523945	0.475364	0.427982	0.452341	0.496805	0.495951	0.471770	0.435712	0.400493	0.386124	0.370476	0.343347	0.310894	0.278204	0.247217	0.218598	0.192534	0.169012	0.147923	0.235082	0.300421	0.314419	0.301791	0.278448	0.284598	
100 1
0.000000	0.000000	0.000000	0.000000	0.000000	0.000000	0.000000	0.000000	0.000000	0.000000	0.000000	0.000000	0.000000	0.000000	0.000000	0.000000	0.000000	0.000000	0.000000	0.000000	0.000000	0.000000	0.000000	0.000000	0.000000	0.000000	0.000000	0.000000	0.000000	0.000000	0.000000	0.000000	0.000000	0.000000	1.000000	0.000000	0.000000	0.000000	0.000000	0.000000	0.000000	0.000000	0.000000	0.000000	0.000000	0.000000	0.000000	0.000000	0.000000	0.000000	0.000000	0.000000	0.000000	0.000000	0.000000	0.000000	0.000000	0.000000	0.000000	0.000000	0.000000	0.000000	0.000000	0.000000	0.000000	0.000000	0.000000	0.000000	0.000000	0.000000	0.000000	0.000000	0.000000	0.000000	0.000000	0.000000	0.000000	0.000000	0.000000	0.000000	0.000000	0.000000	0.000000	0.000000	0.000000	0.000000	0.000000	0.000000	0.000000	0.000000	0.000000	0.000000	0.000000	0.000000	0.000000	0.000000	0.000000	0.000000	0.000000	0.000000	
100 1
-0.129555	-0.054919	-0.014830	0.006209	0.016423	0.020502	0.021170	0.020017	0.017965	0.015544	0.013052	0.010647	0.008411	0.006377	0.004551	0.002928	0.001494	0.000231	-0.000877	-0.001847	-0.002696	-0.003438	-0.004086	-0.004652	-0.005145	-0.005576	-0.005952	-0.006279	-0.006565	-0.006815	-0.007032	-0.007222	-0.007387	-0.007531	0.400833	0.663944	0.749223	0.783358	0.779447	0.749936	0.705833	0.654612	0.600763	0.546920	0.494651	0.444903	0.398240	0.354969	0.315216	0.278981	0.246165	0.216611	0.190118	0.166463	0.145413	0.126734	0.110199	0.095594	0.082716	0.071377	0.061408	0.052652	0.044969	0.038234	0.032334	0.027168	0.022648	0.018695	0.015239	0.012218	0.009579	0.007274	0.005262	0.003504	0.001970	0.000632	-0.000537	-0.001556	-0.002445	-0.003221	-0.003898	-0.004489	-0.005003	-0.005453	-0.005844	-0.006186	-0.006484	-0.006743	-0.006970	-0.007168	-0.007340	-0.007490	-0.007621	-0.007735	-0.007835	-0.007922	-0.007997	-0.008063	-0.008121	-0.008171	
100 1
0.000000	0.000000	0.000000	0.000000	0.000000	0.000000	0.000000	0.000000	0.000000	0.000000	0.000000	0.000000	0.000000	0.000000	0.000000	0.000000	0.000000	0.000000	0.000000	0.000000	0.000000	0.000000	0.000000	0.000000	0.000000	0.000000	0.000000	0.000000	0.000000	0.000000	0.000000	0.000000	0.000000	0.000000	1.000000	0.000000	0.000000	0.000000	0.000000	0.000000	0.000000	0.000000	0.000000	0.000000	0.000000	0.000000	0.000000	0.000000	0.000000	0.000000	0.000000	0.000000	0.000000	0.000000	0.000000	0.000000	0.000000	0.000000	0.000000	0.000000	0.000000	0.000000	0.000000	0.000000	0.000000	0.000000	0.000000	0.000000	0.000000	0.000000	0.000000	0.000000	0.000000	0.000000	0.000000	0.000000	0.000000	0.000000	0.000000	0.000000	0.000000	0.000000	0.000000	0.000000	0.000000	0.000000	0.000000	0.000000	0.000000	0.000000	0.000000	0.000000	0.000000	0.000000	0.000000	0.000000	0.000000	0.000000	0.000000	0.000000	
100 1
-0.129555	-0.054919	-0.014830	0.006209	0.016423	0.020502	0.021170	0.020017	0.017965	0.015544	0.013052	0.010647	0.008411	0.006377	0.004551	0.002928	0.001494	0.000231	-0.000877	-0.001847	-0.002696	-0.003438	-0.004086	-0.004652	-0.005145	-0.005576	-0.005952	-0.006279	-0.006565	-0.006815	-0.007032	-0.007222	-0.007387	-0.007531	0.400833	0.663944	0.749223	0.783358	0.779447	0.749936	0.705833	0.654612	0.600763	0.546920	0.494651	0.444903	0.398240	0.354969	0.315216	0.278981	0.246165	0.216611	0.190118	0.166463	0.145413	0.126734	0.110199	0.095594	0.082716	0.071377	0.061408	0.052652	0.044969	0.038234	0.032334	0.027168	0.022648	0.018695	0.015239	0.012218	0.009579	0.007274	0.005262	0.003504	0.001970	0.000632	-0.000537	-0.001556	-0.002445	-0.003221	-0.003898	-0.004489	-0.005003	-0.005453	-0.005844	-0.006186	-0.006484	-0.006743	-0.006970	-0.007168	-0.007340	-0.007490	-0.007621	-0.007735	-0.007835	-0.007922	-0.007997	-0.008063	-0.008121	-0.008171	
100 1
0.000000	0.044860	0.000000	0.516083	0.000000	0.123389	0.000000	0.000000	0.677328	0.000000	0.000000	0.000000	0.000000	0.000000	0.188951	0.000000	0.000000	0.000000	0.000000	0.000000	0.000000	0.771924	0.000000	0.083023	0.000000	0.000000	0.000000	0.000000	0.000000	0.520380	0.712491	0.081206	0.000000	0.436159	0.000000	0.000000	0.000000	0.111517	0.000000	0.000000	0.297183	0.000000	0.183004	0.000000	0.000000	0.000000	0.803600	0.175488	0.000000	0.000000	0.073283	0.000000	0.000000	0.016498	0.022538	0.000000	0.400781	0.042784	0.000000	1.000000	0.000000	0.000000	0.000000	0.000000	0.000000	0.000000	0.000000	0.000000	0.000000	0.000000	0.000000	0.111612	0.000000	0.000000	0.000000	0.000000	0.000000	0.000000	0.000000	0.684628	0.000000	0.000000	0.000000	0.000000	0.000000	0.000000	0.000000	0.000000	0.000000	0.453356	0.000000	0.000000	0.333939	0.000000	0.000000	0.000000	0.000000	0.000000	0.000000	0.000000	
100 1
-0.129555	-0.053025	-0.000371	0.211289	0.345942	0.391541	0.428904	0.425625	0.536865	0.669053	0.705175	0.706825	0.682446	0.641854	0.602206	0.599786	0.571094	0.529983	0.483838	0.437215	0.392342	0.554532	0.705743	0.735081	0.754232	0.742095	0.709267	0.663515	0.611567	0.637595	0.708879	0.832159	0.881563	0.871729	0.920139	0.914092	0.883553	0.838089	0.796189	0.743076	0.720218	0.700216	0.670352	0.644283	0.603362	0.554518	0.675229	0.746028	0.789795	0.788828	0.755560	0.719054	0.669835	0.613856	0.557912	0.503676	0.537221	0.543486	0.530053	0.685671	0.858376	0.908095	0.910576	0.882447	0.834853	0.775862	0.711175	0.644746	0.579257	0.516477	0.457512	0.420421	0.382910	0.344926	0.306767	0.270134	0.236050	0.204992	0.177097	0.426812	0.523506	0.545653	0.535520	0.506240	0.466656	0.422586	0.377714	0.334275	0.293541	0.409007	0.441347	0.438109	0.473534	0.489400	0.476920	0.448224	0.410983	0.370357	0.329548	0.290444	
100 1
0.000000	0.043652	0.000000	0.000000	0.000000	0.000000	0.000000	0.000000	0.000000	0.000000	0.000000	0.000000	0.000000	0.000000	0.000000	1.000000	0.000000	0.000000	0.000000	0.000000	0.400266	0.000000	0.000000	0.000000	0.000000	0.000000	0.000000	0.000000	0.000000	0.000000	0.000000	0.000000	0.000000	0.000000	0.000000	0.000000	0.000000	0.000000	0.000000	0.000000	0.000000	0.000000	0.000000	0.000000	0.000000	0.000000	0.000000	0.000000	0.000000	0.000000	0.000000	0.000000	0.000000	0.000000	0.000000	0.000000	0.000000	0.000000	0.000000	0.000000	0.000000	0.000000	0.000000	0.000000	0.000000	0.000000	0.000000	0.000000	0.000000	0.000000	0.626565	0.000000	0.000000	0.000000	0.000000	0.000000	0.000000	0.000000	0.000000	0.000000	0.000000	0.000000	0.000000	0.000000	0.000000	0.000000	0.000000	0.000000	0.000000	0.000000	0.000000	0.000000	0.000000	0.000000	0.000000	0.000000	0.000000	0.000000	0.000000	0.000000	
100 1
-0.129555	-0.053133	-0.000813	0.022468	0.032342	0.035352	0.034713	0.032202	0.028830	0.025172	0.021546	0.018119	0.014968	0.012121	0.009579	0.409309	0.670836	0.755228	0.788819	0.784662	0.760233	0.804765	0.798099	0.770384	0.727615	0.675946	0.620449	0.564534	0.510222	0.458636	0.410373	0.365716	0.324755	0.287456	0.253698	0.223302	0.196056	0.171726	0.150071	0.130851	0.113833	0.098797	0.085535	0.073857	0.063586	0.054563	0.046645	0.039703	0.033620	0.028294	0.023633	0.019556	0.015991	0.012876	0.010154	0.007776	0.005700	0.003887	0.002304	0.000923	-0.000282	-0.001334	-0.002252	-0.003052	-0.003751	-0.004360	-0.004891	-0.005355	-0.005759	-0.006112	0.273357	0.422611	0.475174	0.483958	0.465037	0.433278	0.396706	0.359150	0.322514	0.287796	0.255508	0.225879	0.198960	0.174689	0.152939	0.133538	0.116300	0.101030	0.087537	0.075639	0.065165	0.055958	0.047873	0.040782	0.034567	0.029124	0.024360	0.020192	0.016548	0.013362	
100 1
0.000000	0.000000	0.000000	0.000000	0.000000	0.000000	0.000000	0.000000	0.000000	0.000000	0.000000	0.000000	0.627326	0.000000	0.000000	0.000000	0.000000	0.000000	0.000000	0.000000	0.000000	0.000000	0.000000	0.000000	0.000000	0.000000	0.000000	0.000000	0.000000	0.000000	0.095022	1.000000	0.000000	0.000000	0.000000	0.596823	0.000000	0.155474	0.000000	0.000000	0.000000	0.000000	0.000000	0.000000	0.000000	0.000000	0.452168	0.000000	0.308462	0.000000	0.000000	0.000000	0.000000	0.936187	0.192946	0.000000	0.000000	0.000000	0.000000	0.000000	0.000000	0.000000	0.000000	0.000000	0.000000	0.000000	0.000000	0.678400	0.000000	0.000000	0.000000	0.000000	0.000000	0.000000	0.000000	0.000000	0.000000	0.000000	0.000000	0.000000	0.000000	0.000000	0.000000	0.000000	0.000000	0.000000	0.000000	0.000000	0.000000	0.000000	0.000000	0.000000	0.000000	0.135999	0.000000	0.000000	0.000000	0.000000	0.000000	0.000000	
100 1
-0.129555	-0.054919	-0.014830	0.006209	0.016423	0.020502	0.021170	0.020017	0.017965	0.015544	0.013052	0.010647	0.282513	0.430552	0.482295	0.490677	0.471388	0.439192	0.402150	0.364126	0.327038	0.291890	0.259198	0.229191	0.201922	0.177331	0.155287	0.135621	0.118142	0.102657	0.106560	0.453202	0.708652	0.790766	0.823718	0.816020	0.908910	0.906632	0.915951	0.895495	0.860525	0.815768	0.763908	0.707113	0.647879	0.588680	0.607039	0.658105	0.665698	0.701161	0.695999	0.670769	0.630527	0.747070	0.886590	0.957154	0.974099	0.961921	0.930973	0.888625	0.839416	0.785529	0.728024	0.668235	0.608097	0.549508	0.493825	0.596186	0.709862	0.733713	0.728123	0.700015	0.657148	0.606809	0.554060	0.501840	0.451734	0.404573	0.360768	0.320486	0.283743	0.250450	0.220450	0.193546	0.169515	0.148122	0.129133	0.112320	0.097465	0.084364	0.072828	0.062682	0.053771	0.079192	0.108553	0.110674	0.102873	0.092571	0.081998	0.071902	
100 1
0.524514	0.269121	0.447542	0.000000	0.005470	0.033792	0.111829	0.236890	0.076484	0.000000	0.100189	0.017489	0.094555	0.067995	0.032339	0.056735	0.025487	0.083836	0.065419	0.138330	0.207726	0.227275	0.000000	0.280071	0.056122	0.124782	0.293333	0.094633	0.732073	0.000000	0.078960	0.619276	0.129509	0.000000	0.074728	0.034679	0.580872	0.000000	0.108909	0.022568	0.245493	0.173798	0.436166	0.013869	0.000000	0.188552	0.108112	0.092711	0.171041	0.288950	0.634057	0.052647	0.092981	0.107172	0.000000	0.065725	0.113525	0.192060	0.175853	0.353878	0.000000	0.047485	0.106772	0.013744	0.039216	0.000000	0.191609	0.335966	0.000000	0.000000	0.152216	0.144988	0.040744	0.084531	0.249474	0.183326	0.039319	0.028917	0.128815	0.267632	0.032053	0.015655	0.381355	0.128424	0.182948	0.052835	0.294052	0.113663	0.103367	1.000000	0.107467	0.369124	0.101086	0.388196	0.000000	0.159016	0.061356	0.071566	0.028609	0.114245	
100 1
0.015169	0.204768	0.346960	0.495990	0.560871	0.579612	0.571947	0.579144	0.602876	0.609366	0.587165	0.574348	0.546416	0.529923	0.512370	0.486903	0.464368	0.438908	0.425987	0.422482	0.445970	0.485851	0.525836	0.544767	0.578997	0.584370	0.604716	0.636878	0.705156	0.836612	0.857760	0.857800	0.923865	0.952349	0.934922	0.906784	0.882516	0.920659	0.895068	0.867755	0.821568	0.790832	0.767677	0.797632	0.788607	0.751538	0.723503	0.693627	0.664665	0.652266	0.673383	0.754000	0.768865	0.760895	0.749620	0.712566	0.672560	0.643315	0.625007	0.627439	0.651386	0.636533	0.609865	0.582347	0.544899	0.503871	0.486258	0.509244	0.526241	0.513389	0.496811	0.486405	0.473242	0.454985	0.466190	0.476824	0.481190	0.468553	0.455051	0.471565	0.477953	0.465425	0.504786	0.523300	0.532452	0.537339	0.548478	0.558257	0.556200	0.678160	0.832683	0.839101	0.894203	0.872647	0.927088	0.908813	0.895104	0.863053	0.825109	0.774718	
100 1
0.000000	0.062860	0.197561	0.000000	0.000000	0.151090	0.000000	0.000000	0.024297	0.000000	0.000000	0.000000	0.024024	0.000000	0.150530	0.000000	0.000000	0.054359	0.005815	0.086059	0.000000	0.019669	0.000000	0.000000	0.021423	0.000000	0.000000	0.064640	0.098663	0.007595	0.421731	0.068887	0.000000	0.000000	0.000000	0.069292	0.350031	0.051060	0.000000	0.000000	0.000000	0.130180	0.049260	0.139851	0.000000	0.025106	0.076453	0.000000	0.000000	0.075279	0.000000	0.011352	0.000000	0.079203	0.151552	0.090675	0.151961	0.000000	0.205585	0.000000	0.000000	0.000000	0.000000	0.213284	0.004782	0.000000	0.082259	0.073770	0.250470	1.000000	0.076068	0.000000	0.034887	0.028258	0.000000	0.079294	0.300215	0.000000	0.000000	0.181501	0.120562	0.000000	0.142801	0.000000	0.000000	0.182840	0.171969	0.083394	0.000000	0.034799	0.000000	0.000000	0.000000	0.000000	0.140814	0.000000	0.012139	0.120156	0.000000	0.000000	
100 1
-0.129555	-0.051065	0.046384	0.122970	0.146768	0.172030	0.206017	0.206239	0.194198	0.183881	0.167324	0.149540	0.134499	0.125398	0.145437	0.172741	0.170885	0.163369	0.163433	0.164511	0.173758	0.165614	0.156037	0.141135	0.127351	0.118544	0.106039	0.102947	0.125012	0.145310	0.276891	0.364018	0.405736	0.407489	0.386421	0.358883	0.410952	0.466178	0.485262	0.473092	0.442969	0.415567	0.413088	0.411260	0.420045	0.401005	0.380198	0.369348	0.342466	0.315947	0.305293	0.281322	0.256632	0.238491	0.257699	0.285507	0.315343	0.342827	0.360797	0.391869	0.385401	0.360692	0.329305	0.334014	0.359616	0.352042	0.332808	0.329938	0.365537	0.578486	0.798345	0.885145	0.913064	0.914683	0.898939	0.861602	0.836236	0.843261	0.817914	0.783520	0.767178	0.752721	0.722250	0.706895	0.672960	0.637693	0.632514	0.633189	0.627063	0.598295	0.566218	0.522994	0.475828	0.428830	0.399337	0.396514	0.372025	0.354075	0.354213	0.332714	
100 1
0.000000	0.057790	0.000000	0.000000	0.704216	0.000000	0.088383	0.000000	0.000000	0.078702	1.000000	0.000000	0.000000	0.000000	0.000000	0.000000	0.000000	0.289566	0.000000	0.000000	0.000000	0.000000	0.450929	0.000000	0.120649	0.000000	0.266916	0.000000	0.000000	0.000000	0.644104	0.000000	0.000000	0.000000	0.000000	0.000000	0.525092	0.000000	0.000000	0.000000	0.000000	0.000000	0.000000	0.000000	0.000000	0.051504	0.093851	0.490873	0.188922	0.000000	0.000000	0.000000	0.000000	0.000000	0.000000	0.000000	0.000000	0.000000	0.000000	0.000000	0.000000	0.000000	0.000000	0.229350	0.000000	0.000000	0.000000	0.000000	0.693217	0.000000	0.581962	0.261364	0.000000	0.000000	0.060511	0.000000	0.000000	0.000000	0.000000	0.339555	0.000000	0.000000	0.000000	0.000000	0.309885	0.488896	0.000000	0.000000	0.235628	0.358138	0.000000	0.000000	0.000000	0.000000	0.000000	0.000000	0.000000	0.000000	0.000000	0.000000	
100 1
-0.129555	-0.051685	0.004540	0.028590	0.308069	0.483256	0.535359	0.571031	0.566555	0.536950	0.689601	0.906706	0.966860	0.983897	0.971626	0.939070	0.892763	0.843718	0.842604	0.811062	0.767791	0.716042	0.710566	0.751695	0.737590	0.731820	0.713590	0.725497	0.705504	0.669909	0.712416	0.804191	0.815208	0.801594	0.769749	0.724815	0.729816	0.788728	0.786361	0.763582	0.725229	0.676378	0.622172	0.566623	0.512261	0.461872	0.433437	0.510790	0.580906	0.628041	0.636820	0.621037	0.586738	0.542264	0.494223	0.446369	0.400547	0.357615	0.317942	0.281643	0.248686	0.218949	0.192256	0.227146	0.266179	0.266744	0.249572	0.226763	0.426732	0.573897	0.628556	0.715152	0.789737	0.809683	0.798985	0.783188	0.752546	0.712721	0.665059	0.651121	0.671957	0.655648	0.622302	0.577604	0.566986	0.625719	0.705185	0.720798	0.713779	0.732342	0.774930	0.771716	0.750990	0.717451	0.673519	0.622297	0.567818	0.513480	0.461369	0.412527	
