 10
100 1
0.000000	0.000000	0.000000	0.000000	0.000000	0.000000	0.000000	1.000000	0.953274	0.000000	0.398733	0.000000	0.000000	0.000000	0.000000	0.000000	0.000000	0.000000	0.000000	0.000000	0.000000	0.000000	0.000000	0.000000	0.000000	0.000000	0.000000	0.000000	0.000000	0.000000	0.000000	0.000000	0.000000	0.143018	0.000000	0.000000	0.000000	0.000000	0.000000	0.000000	0.000000	0.000000	0.000000	0.000000	0.000000	0.000000	0.000000	0.000000	0.000000	0.000000	0.000000	0.000000	0.000000	0.000000	0.000000	0.000000	0.000000	0.000000	0.000000	0.000000	0.000000	0.000000	0.000000	0.000000	0.000000	0.000000	0.000000	0.000000	0.000000	0.000000	0.000000	0.000000	0.000000	0.000000	0.000000	0.000000	0.000000	0.000000	0.000000	0.000000	0.000000	0.000000	0.000000	0.000000	0.000000	0.000000	0.000000	0.000000	0.000000	0.000000	0.000000	0.000000	0.515213	0.000000	0.000000	0.000000	0.000000	0.000000	0.000000	0.000000	
100 1
-0.005416	0.014213	0.018314	0.014309	0.007025	-0.000807	-0.007826	0.269082	0.589332	0.863579	0.884018	0.949902	0.969855	0.972385	0.958431	0.928367	0.883777	0.827500	0.762926	0.693362	0.621713	0.550408	0.481422	0.416300	0.356177	0.301783	0.253468	0.211251	0.174886	0.143947	0.117903	0.096183	0.078219	0.104480	0.099953	0.093715	0.085476	0.076648	0.068058	0.060131	0.053056	0.046884	0.041594	0.037122	0.033388	0.030309	0.027802	0.025787	0.024195	0.022960	0.022028	0.021348	0.020878	0.020579	0.020420	0.020373	0.020415	0.020526	0.020690	0.020891	0.021118	0.021363	0.021617	0.021873	0.022127	0.022375	0.022614	0.022842	0.023057	0.023258	0.023445	0.023617	0.023775	0.023920	0.024051	0.024168	0.024274	0.024369	0.024452	0.024527	0.024592	0.024649	0.024698	0.024741	0.024778	0.024810	0.024837	0.024859	0.024878	0.024894	0.024907	0.024917	0.182548	0.266034	0.311291	0.331499	0.334382	0.325675	0.309500	0.288797	
100 1
0.000000	0.000000	0.000000	0.000000	0.000000	0.000000	0.027555	0.000000	0.187252	0.000000	0.066118	0.103507	0.075717	0.000000	0.170823	0.539828	0.000000	0.037706	1.000000	0.000000	0.186186	0.230512	0.000000	0.000000	0.189388	0.000000	0.000000	0.317078	0.000000	0.000000	0.031461	0.000000	0.000000	0.000000	0.308135	0.355544	0.000000	0.000000	0.000000	0.000000	0.055644	0.000000	0.000000	0.190200	0.540790	0.000000	0.265764	0.213826	0.000000	0.000000	0.000000	0.000000	0.173350	0.000000	0.000000	0.101841	0.000000	0.000000	0.000000	0.000000	0.049081	0.446198	0.073977	0.000000	0.141825	0.000000	0.000000	0.000000	0.439510	0.132579	0.191925	0.000000	0.000000	0.000000	0.000000	0.000000	0.000000	0.000000	0.345344	0.000000	0.000000	0.000000	0.000000	0.084883	0.050682	0.006787	0.000000	0.000000	0.000000	0.000000	0.000000	0.000000	0.000000	0.000000	0.327497	0.000000	0.000000	0.000000	0.000000	0.186714	
100 1
-0.005416	0.014213	0.018314	0.014309	0.007025	-0.000807	-0.001060	-0.006401	0.038828	0.044155	0.064959	0.096400	0.123664	0.128088	0.177913	0.347607	0.468215	0.534714	0.703294	0.924050	0.987826	1.010602	1.036749	1.027916	0.996423	0.971223	0.927167	0.893531	0.869546	0.824791	0.773547	0.713722	0.649616	0.583748	0.590955	0.637597	0.661054	0.646435	0.612211	0.566495	0.528897	0.479994	0.428602	0.430799	0.530700	0.606491	0.667569	0.726532	0.752494	0.740616	0.707251	0.660428	0.642728	0.605161	0.556975	0.529328	0.484811	0.435862	0.385541	0.336518	0.305013	0.392760	0.450982	0.464106	0.490589	0.484825	0.460694	0.426110	0.502940	0.571578	0.630387	0.651671	0.639834	0.608726	0.565918	0.516524	0.464213	0.411652	0.456895	0.460090	0.440391	0.408716	0.371079	0.356627	0.340111	0.312617	0.280699	0.248036	0.216478	0.187129	0.160558	0.136980	0.116380	0.098606	0.181594	0.204074	0.209596	0.203982	0.192009	0.235513	
100 1
0.000000	0.000000	0.000000	0.000000	0.000000	0.000000	0.000000	0.000000	0.000000	0.000000	0.000000	0.000000	0.000000	0.000000	0.000000	0.000000	0.000000	0.000000	0.000000	0.000000	0.000000	0.000000	0.000000	0.000000	0.000000	0.000000	0.000000	0.000000	0.000000	0.000000	0.000000	0.000000	0.000000	0.000000	1.000000	0.000000	0.000000	0.000000	0.000000	0.000000	0.000000	0.000000	0.000000	0.000000	0.000000	0.000000	0.000000	0.000000	0.000000	0.000000	0.000000	0.000000	0.000000	0.000000	0.000000	0.000000	0.000000	0.000000	0.000000	0.000000	0.000000	0.000000	0.000000	0.000000	0.000000	0.000000	0.000000	0.000000	0.000000	0.000000	0.000000	0.000000	0.000000	0.000000	0.000000	0.000000	0.000000	0.000000	0.000000	0.000000	0.000000	0.000000	0.000000	0.000000	0.000000	0.000000	0.000000	0.000000	0.000000	0.000000	0.000000	0.000000	0.000000	0.000000	0.000000	0.000000	0.000000	0.000000	0.000000	0.000000	
100 1
-0.005416	0.014213	0.018314	0.014309	0.007025	-0.000807	-0.007826	-0.013472	-0.017616	-0.020340	-0.021817	-0.022247	-0.021827	-0.020739	-0.019137	-0.017156	-0.014908	-0.012485	-0.009963	-0.007402	-0.004851	-0.002350	0.000073	0.002396	0.004601	0.006679	0.008621	0.010426	0.012092	0.013621	0.015017	0.016284	0.017430	0.018459	0.324111	0.593815	0.743662	0.828212	0.864454	0.867269	0.847560	0.812799	0.768042	0.716786	0.661552	0.604257	0.546443	0.489396	0.434210	0.381792	0.332861	0.287931	0.247306	0.211090	0.179215	0.151478	0.127585	0.107186	0.089908	0.075381	0.063254	0.053201	0.044929	0.038176	0.032716	0.028347	0.024898	0.022220	0.020185	0.018683	0.017622	0.016921	0.016513	0.016340	0.016354	0.016513	0.016783	0.017135	0.017546	0.017995	0.018467	0.018950	0.019431	0.019904	0.020363	0.020801	0.021217	0.021608	0.021972	0.022309	0.022620	0.022904	0.023162	0.023395	0.023605	0.023792	0.023960	0.024108	0.024238	0.024353	
100 1
0.000000	0.000000	0.000000	0.000000	0.000000	0.000000	0.000000	0.000000	0.000000	0.000000	0.000000	0.000000	0.000000	0.000000	0.000000	0.000000	0.000000	0.000000	0.000000	0.000000	0.000000	0.000000	0.000000	0.000000	0.000000	0.000000	0.000000	0.000000	0.000000	0.000000	0.000000	0.000000	0.000000	0.000000	1.000000	0.000000	0.000000	0.000000	0.000000	0.000000	0.000000	0.000000	0.000000	0.000000	0.000000	0.000000	0.000000	0.000000	0.000000	0.000000	0.000000	0.000000	0.000000	0.000000	0.000000	0.000000	0.000000	0.000000	0.000000	0.000000	0.000000	0.000000	0.000000	0.000000	0.000000	0.000000	0.000000	0.000000	0.000000	0.000000	0.000000	0.000000	0.000000	0.000000	0.000000	0.000000	0.000000	0.000000	0.000000	0.000000	0.000000	0.000000	0.000000	0.000000	0.000000	0.000000	0.000000	0.000000	0.000000	0.000000	0.000000	0.000000	0.000000	0.000000	0.000000	0.000000	0.000000	0.000000	0.000000	0.000000	
100 1
-0.005416	0.014213	0.018314	0.014309	0.007025	-0.000807	-0.007826	-0.013472	-0.017616	-0.020340	-0.021817	-0.022247	-0.021827	-0.020739	-0.019137	-0.017156	-0.014908	-0.012485	-0.009963	-0.007402	-0.004851	-0.002350	0.000073	0.002396	0.004601	0.006679	0.008621	0.010426	0.012092	0.013621	0.015017	0.016284	0.017430	0.018459	0.324111	0.593815	0.743662	0.828212	0.864454	0.867269	0.847560	0.812799	0.768042	0.716786	0.661552	0.604257	0.546443	0.489396	0.434210	0.381792	0.332861	0.287931	0.247306	0.211090	0.179215	0.151478	0.127585	0.107186	0.089908	0.075381	0.063254	0.053201	0.044929	0.038176	0.032716	0.028347	0.024898	0.022220	0.020185	0.018683	0.017622	0.016921	0.016513	0.016340	0.016354	0.016513	0.016783	0.017135	0.017546	0.017995	0.018467	0.018950	0.019431	0.019904	0.020363	0.020801	0.021217	0.021608	0.021972	0.022309	0.022620	0.022904	0.023162	0.023395	0.023605	0.023792	0.023960	0.024108	0.024238	0.024353	
100 1
0.000000	0.044860	0.000000	0.516083	0.000000	0.123389	0.000000	0.000000	0.677328	0.000000	0.000000	0.000000	0.000000	0.000000	0.188951	0.000000	0.000000	0.000000	0.000000	0.000000	0.000000	0.771924	0.000000	0.083023	0.000000	0.000000	0.000000	0.000000	0.000000	0.520380	0.712491	0.081206	0.000000	0.436159	0.000000	0.000000	0.000000	0.111517	0.000000	0.000000	0.297183	0.000000	0.183004	0.000000	0.000000	0.000000	0.803600	0.175488	0.000000	0.000000	0.073283	0.000000	0.000000	0.016498	0.022538	0.000000	0.400781	0.042784	0.000000	1.000000	0.000000	0.000000	0.000000	0.000000	0.000000	0.000000	0.000000	0.000000	0.000000	0.000000	0.000000	0.111612	0.000000	0.000000	0.000000	0.000000	0.000000	0.000000	0.000000	0.684628	0.000000	0.000000	0.000000	0.000000	0.000000	0.000000	0.000000	0.000000	0.000000	0.453356	0.000000	0.000000	0.333939	0.000000	0.000000	0.000000	0.000000	0.000000	0.000000	0.000000	
100 1
-0.005416	0.023768	0.029904	0.152980	0.214151	0.266400	0.278931	0.269905	0.422507	0.547259	0.593744	0.602343	0.585725	0.552878	0.558000	0.535665	0.499290	0.455328	0.408258	0.360920	0.315261	0.480287	0.619301	0.688811	0.715612	0.709567	0.682660	0.642423	0.594053	0.653773	0.754993	0.886519	0.932737	0.914487	0.949788	0.939644	0.907940	0.869002	0.822349	0.764727	0.745187	0.716524	0.701323	0.668351	0.620953	0.565572	0.654602	0.780368	0.832803	0.837909	0.823716	0.791521	0.744321	0.691258	0.636491	0.576139	0.605239	0.617550	0.597819	0.705964	0.880437	0.933061	0.942529	0.923634	0.885637	0.834935	0.776112	0.712521	0.646688	0.580584	0.515800	0.484509	0.436955	0.388281	0.340240	0.294758	0.252890	0.215195	0.181867	0.352969	0.471211	0.521741	0.537102	0.528648	0.504539	0.470675	0.431286	0.389413	0.347247	0.437591	0.479129	0.482882	0.551742	0.584045	0.580216	0.556408	0.520482	0.477567	0.431312	0.384340	
100 1
0.000000	0.043652	0.000000	0.000000	0.000000	0.000000	0.000000	0.000000	0.000000	0.000000	0.000000	0.000000	0.000000	0.000000	0.000000	1.000000	0.000000	0.000000	0.000000	0.000000	0.400266	0.000000	0.000000	0.000000	0.000000	0.000000	0.000000	0.000000	0.000000	0.000000	0.000000	0.000000	0.000000	0.000000	0.000000	0.000000	0.000000	0.000000	0.000000	0.000000	0.000000	0.000000	0.000000	0.000000	0.000000	0.000000	0.000000	0.000000	0.000000	0.000000	0.000000	0.000000	0.000000	0.000000	0.000000	0.000000	0.000000	0.000000	0.000000	0.000000	0.000000	0.000000	0.000000	0.000000	0.000000	0.000000	0.000000	0.000000	0.000000	0.000000	0.626565	0.000000	0.000000	0.000000	0.000000	0.000000	0.000000	0.000000	0.000000	0.000000	0.000000	0.000000	0.000000	0.000000	0.000000	0.000000	0.000000	0.000000	0.000000	0.000000	0.000000	0.000000	0.000000	0.000000	0.000000	0.000000	0.000000	0.000000	0.000000	0.000000	
100 1
-0.005416	0.023510	0.029582	0.026270	0.018557	0.009729	0.001493	-0.005399	-0.010720	-0.014508	-0.016924	-0.018172	-0.018458	-0.017973	-0.016888	0.282848	0.542181	0.687937	0.771218	0.807540	0.862794	0.910411	0.910488	0.885900	0.845712	0.795437	0.738828	0.678573	0.616699	0.554815	0.494250	0.436114	0.381311	0.330537	0.284259	0.242720	0.205956	0.173824	0.146054	0.122288	0.102126	0.085155	0.070975	0.059211	0.049522	0.041605	0.035191	0.030048	0.025975	0.022797	0.020368	0.018559	0.017262	0.016385	0.015849	0.015588	0.015546	0.015676	0.015938	0.016298	0.016729	0.017209	0.017718	0.018242	0.018769	0.019289	0.019794	0.020280	0.020741	0.021176	0.214019	0.336114	0.404371	0.439125	0.449689	0.443362	0.425590	0.400368	0.370639	0.338590	0.305847	0.273614	0.242752	0.213849	0.187267	0.163187	0.141654	0.122610	0.105929	0.091441	0.078952	0.068263	0.059175	0.051498	0.045057	0.039691	0.035255	0.031619	0.028669	0.026303	
100 1
0.000000	0.000000	0.000000	0.000000	0.000000	0.000000	0.000000	0.000000	0.000000	0.000000	0.000000	0.000000	0.627326	0.000000	0.000000	0.000000	0.000000	0.000000	0.000000	0.000000	0.000000	0.000000	0.000000	0.000000	0.000000	0.000000	0.000000	0.000000	0.000000	0.000000	0.095022	1.000000	0.000000	0.000000	0.000000	0.596823	0.000000	0.155474	0.000000	0.000000	0.000000	0.000000	0.000000	0.000000	0.000000	0.000000	0.452168	0.000000	0.308462	0.000000	0.000000	0.000000	0.000000	0.936187	0.192946	0.000000	0.000000	0.000000	0.000000	0.000000	0.000000	0.000000	0.000000	0.000000	0.000000	0.000000	0.000000	0.678400	0.000000	0.000000	0.000000	0.000000	0.000000	0.000000	0.000000	0.000000	0.000000	0.000000	0.000000	0.000000	0.000000	0.000000	0.000000	0.000000	0.000000	0.000000	0.000000	0.000000	0.000000	0.000000	0.000000	0.000000	0.000000	0.135999	0.000000	0.000000	0.000000	0.000000	0.000000	0.000000	
100 1
-0.005416	0.014213	0.018314	0.014309	0.007025	-0.000807	-0.007826	-0.013472	-0.017616	-0.020340	-0.021817	-0.022247	0.159568	0.266164	0.324145	0.351453	0.357353	0.348970	0.331474	0.308537	0.282751	0.255938	0.229362	0.203875	0.180023	0.158120	0.138311	0.120621	0.104990	0.091304	0.107547	0.393633	0.660044	0.794259	0.863302	0.911202	1.000585	1.016540	1.020213	0.996026	0.954705	0.901938	0.841706	0.776929	0.709811	0.642081	0.671171	0.680874	0.710785	0.721154	0.699461	0.660414	0.611185	0.710807	0.861876	0.927596	0.941019	0.924713	0.888354	0.838550	0.780076	0.716454	0.650344	0.583818	0.518539	0.455855	0.396841	0.516605	0.609586	0.635627	0.630171	0.604583	0.566267	0.520464	0.470936	0.420421	0.370911	0.323827	0.280129	0.240393	0.204880	0.173610	0.146421	0.123036	0.103113	0.086279	0.072164	0.060416	0.050708	0.042748	0.036277	0.031068	0.026923	0.062486	0.066633	0.068501	0.067230	0.064238	0.060446	0.056394	
100 1
0.524514	0.269121	0.447542	0.000000	0.005470	0.033792	0.111829	0.236890	0.076484	0.000000	0.100189	0.017489	0.094555	0.067995	0.032339	0.056735	0.025487	0.083836	0.065419	0.138330	0.207726	0.227275	0.000000	0.280071	0.056122	0.124782	0.293333	0.094633	0.732073	0.000000	0.078960	0.619276	0.129509	0.000000	0.074728	0.034679	0.580872	0.000000	0.108909	0.022568	0.245493	0.173798	0.436166	0.013869	0.000000	0.188552	0.108112	0.092711	0.171041	0.288950	0.634057	0.052647	0.092981	0.107172	0.000000	0.065725	0.113525	0.192060	0.175853	0.353878	0.000000	0.047485	0.106772	0.013744	0.039216	0.000000	0.191609	0.335966	0.000000	0.000000	0.152216	0.144988	0.040744	0.084531	0.249474	0.183326	0.039319	0.028917	0.128815	0.267632	0.032053	0.015655	0.381355	0.128424	0.182948	0.052835	0.294052	0.113663	0.103367	1.000000	0.107467	0.369124	0.101086	0.388196	0.000000	0.159016	0.061356	0.071566	0.028609	0.114245	
100 1
0.094237	0.239726	0.369161	0.480132	0.521525	0.532964	0.533663	0.544698	0.549371	0.526314	0.505538	0.469913	0.445418	0.420264	0.388014	0.360984	0.328484	0.312960	0.299291	0.310078	0.350856	0.413158	0.432324	0.493068	0.529056	0.556414	0.609824	0.650679	0.718391	0.838661	0.869352	0.846182	0.900723	0.916939	0.901016	0.875500	0.827992	0.860852	0.845385	0.821237	0.794108	0.780439	0.768724	0.789763	0.770338	0.748118	0.729739	0.706439	0.689916	0.692757	0.714990	0.792505	0.806614	0.802974	0.784191	0.751143	0.719267	0.700235	0.691410	0.701804	0.711323	0.692358	0.671113	0.635234	0.594021	0.541264	0.529854	0.565272	0.574313	0.552228	0.549851	0.555932	0.544639	0.532966	0.557012	0.589288	0.596564	0.581836	0.577014	0.603852	0.610460	0.591355	0.628380	0.667474	0.694933	0.703263	0.720454	0.738877	0.739894	0.762029	0.896206	0.890045	0.918619	0.868041	0.894186	0.867887	0.853649	0.826596	0.791862	0.752550	
100 1
0.000000	0.062860	0.197561	0.000000	0.000000	0.151090	0.000000	0.000000	0.024297	0.000000	0.000000	0.000000	0.024024	0.000000	0.150530	0.000000	0.000000	0.054359	0.005815	0.086059	0.000000	0.019669	0.000000	0.000000	0.021423	0.000000	0.000000	0.064640	0.098663	0.007595	0.421731	0.068887	0.000000	0.000000	0.000000	0.069292	0.350031	0.051060	0.000000	0.000000	0.000000	0.130180	0.049260	0.139851	0.000000	0.025106	0.076453	0.000000	0.000000	0.075279	0.000000	0.011352	0.000000	0.079203	0.151552	0.090675	0.151961	0.000000	0.205585	0.000000	0.000000	0.000000	0.000000	0.213284	0.004782	0.000000	0.082259	0.073770	0.250470	1.000000	0.076068	0.000000	0.034887	0.028258	0.000000	0.079294	0.300215	0.000000	0.000000	0.181501	0.120562	0.000000	0.142801	0.000000	0.000000	0.182840	0.171969	0.083394	0.000000	0.034799	0.000000	0.000000	0.000000	0.000000	0.140814	0.000000	0.012139	0.120156	0.000000	0.000000	
100 1
-0.005416	0.027612	0.080036	0.091188	0.088247	0.117236	0.112983	0.102722	0.095911	0.082732	0.069905	0.058016	0.054198	0.045953	0.081818	0.083807	0.082742	0.094451	0.092997	0.114142	0.113118	0.114884	0.109192	0.101862	0.100133	0.092818	0.085393	0.097265	0.123350	0.127479	0.257213	0.344799	0.385790	0.398989	0.393802	0.398605	0.484094	0.538745	0.551822	0.540838	0.514793	0.516368	0.506443	0.516799	0.498963	0.474878	0.460846	0.428723	0.390634	0.372585	0.339052	0.306816	0.271824	0.262116	0.282469	0.299023	0.335415	0.335922	0.382065	0.387812	0.374248	0.349686	0.319373	0.351586	0.346264	0.327356	0.326512	0.327946	0.383623	0.595598	0.835901	0.935180	0.973319	0.978151	0.958354	0.926160	0.903954	0.887193	0.847185	0.818554	0.795671	0.757339	0.730897	0.688686	0.636118	0.618915	0.617673	0.610402	0.579925	0.545153	0.498636	0.447883	0.396093	0.345717	0.339837	0.309320	0.279547	0.282396	0.260743	0.235159	
100 1
0.000000	0.057790	0.000000	0.000000	0.704216	0.000000	0.088383	0.000000	0.000000	0.078702	1.000000	0.000000	0.000000	0.000000	0.000000	0.000000	0.000000	0.289566	0.000000	0.000000	0.000000	0.000000	0.450929	0.000000	0.120649	0.000000	0.266916	0.000000	0.000000	0.000000	0.644104	0.000000	0.000000	0.000000	0.000000	0.000000	0.525092	0.000000	0.000000	0.000000	0.000000	0.000000	0.000000	0.000000	0.000000	0.051504	0.093851	0.490873	0.188922	0.000000	0.000000	0.000000	0.000000	0.000000	0.000000	0.000000	0.000000	0.000000	0.000000	0.000000	0.000000	0.000000	0.000000	0.229350	0.000000	0.000000	0.000000	0.000000	0.693217	0.000000	0.581962	0.261364	0.000000	0.000000	0.060511	0.000000	0.000000	0.000000	0.000000	0.339555	0.000000	0.000000	0.000000	0.000000	0.309885	0.488896	0.000000	0.000000	0.235628	0.358138	0.000000	0.000000	0.000000	0.000000	0.000000	0.000000	0.000000	0.000000	0.000000	0.000000	
100 1
-0.005416	0.026529	0.033381	0.030341	0.204709	0.320928	0.392984	0.421354	0.419593	0.421290	0.599743	0.812542	0.890481	0.916802	0.909122	0.878786	0.833447	0.819211	0.796570	0.754484	0.701403	0.642474	0.672038	0.685458	0.687294	0.664800	0.676761	0.667149	0.634378	0.588901	0.659060	0.733828	0.744162	0.725612	0.689012	0.641116	0.685396	0.723679	0.715322	0.684666	0.640660	0.588762	0.532864	0.475832	0.419798	0.381454	0.363402	0.459590	0.557630	0.600717	0.603669	0.583000	0.547530	0.503342	0.454777	0.404949	0.356082	0.309717	0.266857	0.228071	0.193591	0.163390	0.137270	0.183293	0.183729	0.176135	0.163189	0.147893	0.340586	0.480532	0.649678	0.815204	0.911831	0.943114	0.941139	0.919293	0.878661	0.825863	0.765424	0.757277	0.738011	0.697815	0.646298	0.589046	0.601610	0.667733	0.726753	0.730099	0.740511	0.768352	0.793028	0.776786	0.739679	0.689625	0.631848	0.570219	0.507664	0.446406	0.388107	0.333952	
