10
100 1
0.000000	0.000000	0.000000	0.000000	0.000000	0.000000	0.000000	1.000000	0.953274	0.000000	0.398733	0.000000	0.000000	0.000000	0.000000	0.000000	0.000000	0.000000	0.000000	0.000000	0.000000	0.000000	0.000000	0.000000	0.000000	0.000000	0.000000	0.000000	0.000000	0.000000	0.000000	0.000000	0.000000	0.143018	0.000000	0.000000	0.000000	0.000000	0.000000	0.000000	0.000000	0.000000	0.000000	0.000000	0.000000	0.000000	0.000000	0.000000	0.000000	0.000000	0.000000	0.000000	0.000000	0.000000	0.000000	0.000000	0.000000	0.000000	0.000000	0.000000	0.000000	0.000000	0.000000	0.000000	0.000000	0.000000	0.000000	0.000000	0.000000	0.000000	0.000000	0.000000	0.000000	0.000000	0.000000	0.000000	0.000000	0.000000	0.000000	0.000000	0.000000	0.000000	0.000000	0.000000	0.000000	0.000000	0.000000	0.000000	0.000000	0.000000	0.000000	0.000000	0.515213	0.000000	0.000000	0.000000	0.000000	0.000000	0.000000	0.000000	
100 1
0.000000	0.000000	0.000000	0.000000	0.000000	0.000000	0.000000	0.207178	0.536624	0.761140	0.881212	0.946382	0.953306	0.928580	0.886801	0.835578	0.779032	0.719567	0.658725	0.597589	0.536994	0.477628	0.420084	0.364889	0.312508	0.263349	0.217748	0.175970	0.138196	0.104520	0.074952	0.049415	0.027761	0.040611	0.056281	0.066382	0.072446	0.075268	0.075463	0.073570	0.070073	0.065393	0.059902	0.053912	0.047689	0.041446	0.035357	0.029554	0.024136	0.019171	0.014699	0.010742	0.007302	0.004365	0.001910	-0.000097	-0.001691	-0.002915	-0.003810	-0.004419	-0.004784	-0.004946	-0.004940	-0.004802	-0.004562	-0.004248	-0.003882	-0.003486	-0.003077	-0.002668	-0.002270	-0.001891	-0.001539	-0.001217	-0.000928	-0.000672	-0.000451	-0.000262	-0.000105	0.000023	0.000124	0.000201	0.000257	0.000295	0.000317	0.000326	0.000324	0.000314	0.000297	0.000276	0.000252	0.000226	0.110224	0.216185	0.289318	0.336655	0.363059	0.372836	0.369790	0.357146	
100 1
0.000000	0.000000	0.000000	0.000000	0.000000	0.000000	0.027555	0.000000	0.187252	0.000000	0.066118	0.103507	0.075717	0.000000	0.170823	0.539828	0.000000	0.037706	1.000000	0.000000	0.186186	0.230512	0.000000	0.000000	0.189388	0.000000	0.000000	0.317078	0.000000	0.000000	0.031461	0.000000	0.000000	0.000000	0.308135	0.355544	0.000000	0.000000	0.000000	0.000000	0.055644	0.000000	0.000000	0.190200	0.540790	0.000000	0.265764	0.213826	0.000000	0.000000	0.000000	0.000000	0.173350	0.000000	0.000000	0.101841	0.000000	0.000000	0.000000	0.000000	0.049081	0.446198	0.073977	0.000000	0.141825	0.000000	0.000000	0.000000	0.439510	0.132579	0.191925	0.000000	0.000000	0.000000	0.000000	0.000000	0.000000	0.000000	0.345344	0.000000	0.000000	0.000000	0.000000	0.084883	0.050682	0.006787	0.000000	0.000000	0.000000	0.000000	0.000000	0.000000	0.000000	0.000000	0.327497	0.000000	0.000000	0.000000	0.000000	0.186714	
100 1
0.000000	0.000000	0.000000	0.000000	0.000000	0.000000	0.005952	0.011787	0.056275	0.098540	0.142224	0.197076	0.254218	0.294353	0.349024	0.477409	0.582556	0.640888	0.743384	0.853305	0.899376	0.920662	0.925036	0.900857	0.871416	0.843957	0.802732	0.781067	0.769208	0.739483	0.702022	0.658515	0.609444	0.557282	0.551115	0.598565	0.636232	0.642887	0.628516	0.600235	0.571436	0.537918	0.498207	0.486934	0.554843	0.618956	0.675076	0.730621	0.759055	0.754641	0.729368	0.691197	0.667134	0.643225	0.608010	0.580892	0.551323	0.514110	0.472267	0.427896	0.391711	0.434087	0.489893	0.519095	0.546603	0.558636	0.550772	0.529239	0.563441	0.616115	0.665132	0.690473	0.686803	0.664083	0.629157	0.586595	0.539473	0.489926	0.496445	0.507623	0.500453	0.480791	0.452639	0.434119	0.421894	0.404609	0.380371	0.351277	0.319235	0.285695	0.251785	0.218391	0.186206	0.155761	0.195482	0.236834	0.260802	0.271871	0.272886	0.302913	
100 1
0.000000	0.000000	0.000000	0.000000	0.000000	0.000000	0.000000	0.000000	0.000000	0.000000	0.000000	0.000000	0.000000	0.000000	0.000000	0.000000	0.000000	0.000000	0.000000	0.000000	0.000000	0.000000	0.000000	0.000000	0.000000	0.000000	0.000000	0.000000	0.000000	0.000000	0.000000	0.000000	0.000000	0.000000	1.000000	0.000000	0.000000	0.000000	0.000000	0.000000	0.000000	0.000000	0.000000	0.000000	0.000000	0.000000	0.000000	0.000000	0.000000	0.000000	0.000000	0.000000	0.000000	0.000000	0.000000	0.000000	0.000000	0.000000	0.000000	0.000000	0.000000	0.000000	0.000000	0.000000	0.000000	0.000000	0.000000	0.000000	0.000000	0.000000	0.000000	0.000000	0.000000	0.000000	0.000000	0.000000	0.000000	0.000000	0.000000	0.000000	0.000000	0.000000	0.000000	0.000000	0.000000	0.000000	0.000000	0.000000	0.000000	0.000000	0.000000	0.000000	0.000000	0.000000	0.000000	0.000000	0.000000	0.000000	0.000000	0.000000	
100 1
0.000000	0.000000	0.000000	0.000000	0.000000	0.000000	0.000000	0.000000	0.000000	0.000000	0.000000	0.000000	0.000000	0.000000	0.000000	0.000000	0.000000	0.000000	0.000000	0.000000	0.000000	0.000000	0.000000	0.000000	0.000000	0.000000	0.000000	0.000000	0.000000	0.000000	0.000000	0.000000	0.000000	0.000000	0.207178	0.397972	0.519357	0.588103	0.617830	0.619995	0.603350	0.574177	0.536874	0.494529	0.449348	0.402948	0.356554	0.311114	0.267377	0.225930	0.187232	0.151620	0.119323	0.090470	0.065096	0.043155	0.024529	0.009040	-0.003533	-0.013445	-0.020970	-0.026390	-0.029989	-0.032041	-0.032806	-0.032526	-0.031423	-0.029694	-0.027515	-0.025035	-0.022384	-0.019668	-0.016973	-0.014369	-0.011907	-0.009626	-0.007549	-0.005691	-0.004058	-0.002649	-0.001455	-0.000465	0.000335	0.000963	0.001437	0.001775	0.001996	0.002118	0.002158	0.002131	0.002052	0.001934	0.001787	0.001622	0.001447	0.001268	0.001092	0.000921	0.000761	0.000613	
100 1
0.000000	0.000000	0.000000	0.000000	0.000000	0.000000	0.000000	0.000000	0.000000	0.000000	0.000000	0.000000	0.000000	0.000000	0.000000	0.000000	0.000000	0.000000	0.000000	0.000000	0.000000	0.000000	0.000000	0.000000	0.000000	0.000000	0.000000	0.000000	0.000000	0.000000	0.000000	0.000000	0.000000	0.000000	1.000000	0.000000	0.000000	0.000000	0.000000	0.000000	0.000000	0.000000	0.000000	0.000000	0.000000	0.000000	0.000000	0.000000	0.000000	0.000000	0.000000	0.000000	0.000000	0.000000	0.000000	0.000000	0.000000	0.000000	0.000000	0.000000	0.000000	0.000000	0.000000	0.000000	0.000000	0.000000	0.000000	0.000000	0.000000	0.000000	0.000000	0.000000	0.000000	0.000000	0.000000	0.000000	0.000000	0.000000	0.000000	0.000000	0.000000	0.000000	0.000000	0.000000	0.000000	0.000000	0.000000	0.000000	0.000000	0.000000	0.000000	0.000000	0.000000	0.000000	0.000000	0.000000	0.000000	0.000000	0.000000	0.000000	
100 1
0.000000	0.000000	0.000000	0.000000	0.000000	0.000000	0.000000	0.000000	0.000000	0.000000	0.000000	0.000000	0.000000	0.000000	0.000000	0.000000	0.000000	0.000000	0.000000	0.000000	0.000000	0.000000	0.000000	0.000000	0.000000	0.000000	0.000000	0.000000	0.000000	0.000000	0.000000	0.000000	0.000000	0.000000	0.207178	0.397972	0.519357	0.588103	0.617830	0.619995	0.603350	0.574177	0.536874	0.494529	0.449348	0.402948	0.356554	0.311114	0.267377	0.225930	0.187232	0.151620	0.119323	0.090470	0.065096	0.043155	0.024529	0.009040	-0.003533	-0.013445	-0.020970	-0.026390	-0.029989	-0.032041	-0.032806	-0.032526	-0.031423	-0.029694	-0.027515	-0.025035	-0.022384	-0.019668	-0.016973	-0.014369	-0.011907	-0.009626	-0.007549	-0.005691	-0.004058	-0.002649	-0.001455	-0.000465	0.000335	0.000963	0.001437	0.001775	0.001996	0.002118	0.002158	0.002131	0.002052	0.001934	0.001787	0.001622	0.001447	0.001268	0.001092	0.000921	0.000761	0.000613	
100 1
0.000000	0.044860	0.000000	0.516083	0.000000	0.123389	0.000000	0.000000	0.677328	0.000000	0.000000	0.000000	0.000000	0.000000	0.188951	0.000000	0.000000	0.000000	0.000000	0.000000	0.000000	0.771924	0.000000	0.083023	0.000000	0.000000	0.000000	0.000000	0.000000	0.520380	0.712491	0.081206	0.000000	0.436159	0.000000	0.000000	0.000000	0.111517	0.000000	0.000000	0.297183	0.000000	0.183004	0.000000	0.000000	0.000000	0.803600	0.175488	0.000000	0.000000	0.073283	0.000000	0.000000	0.016498	0.022538	0.000000	0.400781	0.042784	0.000000	1.000000	0.000000	0.000000	0.000000	0.000000	0.000000	0.000000	0.000000	0.000000	0.000000	0.000000	0.000000	0.111612	0.000000	0.000000	0.000000	0.000000	0.000000	0.000000	0.000000	0.684628	0.000000	0.000000	0.000000	0.000000	0.000000	0.000000	0.000000	0.000000	0.000000	0.453356	0.000000	0.000000	0.333939	0.000000	0.000000	0.000000	0.000000	0.000000	0.000000	0.000000	
100 1
0.000000	0.009689	0.019188	0.135477	0.245297	0.343541	0.412959	0.451925	0.564500	0.664172	0.709026	0.716838	0.700608	0.669116	0.652637	0.635130	0.604506	0.565468	0.521275	0.474207	0.425912	0.499975	0.584081	0.634529	0.654854	0.649205	0.626297	0.592166	0.550938	0.579825	0.688091	0.790382	0.834121	0.858641	0.882613	0.871420	0.838872	0.803594	0.766304	0.719804	0.701699	0.690619	0.685029	0.673883	0.646653	0.609052	0.657795	0.742833	0.786547	0.790252	0.775906	0.749139	0.709690	0.664652	0.618734	0.570112	0.577327	0.597528	0.596540	0.681237	0.784596	0.824271	0.823345	0.798064	0.758369	0.710170	0.657059	0.601336	0.544565	0.487886	0.432181	0.398882	0.368599	0.334818	0.299483	0.263835	0.228792	0.195059	0.163175	0.269916	0.376518	0.442147	0.477062	0.488723	0.483232	0.465443	0.439105	0.407063	0.371482	0.415115	0.460722	0.479632	0.531454	0.572402	0.583871	0.574839	0.551800	0.519421	0.481039	0.439071	
100 1
0.000000	0.043652	0.000000	0.000000	0.000000	0.000000	0.000000	0.000000	0.000000	0.000000	0.000000	0.000000	0.000000	0.000000	0.000000	1.000000	0.000000	0.000000	0.000000	0.000000	0.400266	0.000000	0.000000	0.000000	0.000000	0.000000	0.000000	0.000000	0.000000	0.000000	0.000000	0.000000	0.000000	0.000000	0.000000	0.000000	0.000000	0.000000	0.000000	0.000000	0.000000	0.000000	0.000000	0.000000	0.000000	0.000000	0.000000	0.000000	0.000000	0.000000	0.000000	0.000000	0.000000	0.000000	0.000000	0.000000	0.000000	0.000000	0.000000	0.000000	0.000000	0.000000	0.000000	0.000000	0.000000	0.000000	0.000000	0.000000	0.000000	0.000000	0.626565	0.000000	0.000000	0.000000	0.000000	0.000000	0.000000	0.000000	0.000000	0.000000	0.000000	0.000000	0.000000	0.000000	0.000000	0.000000	0.000000	0.000000	0.000000	0.000000	0.000000	0.000000	0.000000	0.000000	0.000000	0.000000	0.000000	0.000000	0.000000	0.000000	
100 1
0.000000	0.009428	0.018671	0.025267	0.029781	0.032557	0.033883	0.034019	0.033207	0.031661	0.029574	0.027112	0.024419	0.021614	0.018797	0.221561	0.408897	0.527183	0.593338	0.621051	0.669353	0.708160	0.712579	0.694369	0.661731	0.620077	0.572975	0.522845	0.471392	0.419874	0.369258	0.320315	0.273661	0.229795	0.189104	0.151872	0.118287	0.088437	0.062325	0.039869	0.020922	0.005274	-0.007323	-0.017151	-0.024509	-0.029700	-0.033026	-0.034779	-0.035231	-0.034637	-0.033227	-0.031205	-0.028750	-0.026019	-0.023141	-0.020224	-0.017354	-0.014600	-0.012013	-0.009629	-0.007470	-0.005549	-0.003870	-0.002429	-0.001216	-0.000217	0.000583	0.001205	0.001667	0.001990	0.135207	0.262386	0.348747	0.403157	0.432058	0.441172	0.435425	0.418850	0.394641	0.365290	0.332734	0.298482	0.263720	0.229375	0.196178	0.164689	0.135330	0.108399	0.084087	0.062490	0.043622	0.027428	0.013797	0.002574	-0.006430	-0.013422	-0.018624	-0.022259	-0.024550	-0.025709	
100 1
0.000000	0.000000	0.000000	0.000000	0.000000	0.000000	0.000000	0.000000	0.000000	0.000000	0.000000	0.000000	0.627326	0.000000	0.000000	0.000000	0.000000	0.000000	0.000000	0.000000	0.000000	0.000000	0.000000	0.000000	0.000000	0.000000	0.000000	0.000000	0.000000	0.000000	0.095022	1.000000	0.000000	0.000000	0.000000	0.596823	0.000000	0.155474	0.000000	0.000000	0.000000	0.000000	0.000000	0.000000	0.000000	0.000000	0.452168	0.000000	0.308462	0.000000	0.000000	0.000000	0.000000	0.936187	0.192946	0.000000	0.000000	0.000000	0.000000	0.000000	0.000000	0.000000	0.000000	0.000000	0.000000	0.000000	0.000000	0.678400	0.000000	0.000000	0.000000	0.000000	0.000000	0.000000	0.000000	0.000000	0.000000	0.000000	0.000000	0.000000	0.000000	0.000000	0.000000	0.000000	0.000000	0.000000	0.000000	0.000000	0.000000	0.000000	0.000000	0.000000	0.000000	0.135999	0.000000	0.000000	0.000000	0.000000	0.000000	0.000000	
100 1
0.000000	0.000000	0.000000	0.000000	0.000000	0.000000	0.000000	0.000000	0.000000	0.000000	0.000000	0.000000	0.133253	0.260558	0.347096	0.401714	0.430829	0.440147	0.434584	0.418170	0.394099	0.364867	0.332412	0.298246	0.263555	0.229271	0.196123	0.164675	0.135348	0.108443	0.104473	0.298077	0.475933	0.582939	0.637876	0.715513	0.783966	0.814850	0.820768	0.800169	0.763439	0.717094	0.665132	0.610093	0.553682	0.497126	0.513688	0.538507	0.583925	0.617352	0.621929	0.606850	0.578669	0.649635	0.757386	0.814416	0.824513	0.805900	0.770213	0.724417	0.672714	0.617745	0.561275	0.504560	0.448555	0.394024	0.341601	0.412280	0.489985	0.529868	0.542643	0.536029	0.515859	0.486462	0.451023	0.411893	0.370835	0.329191	0.288001	0.248079	0.210063	0.174440	0.141569	0.111696	0.084963	0.061419	0.041030	0.023696	0.009257	-0.002486	-0.011765	-0.018833	-0.023947	0.002011	0.028808	0.048545	0.062764	0.072330	0.077962	0.080319	
100 1
0.524514	0.269121	0.447542	0.000000	0.005470	0.033792	0.111829	0.236890	0.076484	0.000000	0.100189	0.017489	0.094555	0.067995	0.032339	0.056735	0.025487	0.083836	0.065419	0.138330	0.207726	0.227275	0.000000	0.280071	0.056122	0.124782	0.293333	0.094633	0.732073	0.000000	0.078960	0.619276	0.129509	0.000000	0.074728	0.034679	0.580872	0.000000	0.108909	0.022568	0.245493	0.173798	0.436166	0.013869	0.000000	0.188552	0.108112	0.092711	0.171041	0.288950	0.634057	0.052647	0.092981	0.107172	0.000000	0.065725	0.113525	0.192060	0.175853	0.353878	0.000000	0.047485	0.106772	0.013744	0.039216	0.000000	0.191609	0.335966	0.000000	0.000000	0.152216	0.144988	0.040744	0.084531	0.249474	0.183326	0.039319	0.028917	0.128815	0.267632	0.032053	0.015655	0.381355	0.128424	0.182948	0.052835	0.294052	0.113663	0.103367	1.000000	0.107467	0.369124	0.101086	0.388196	0.000000	0.159016	0.061356	0.071566	0.028609	0.114245	
100 1
0.111971	0.273125	0.469947	0.612330	0.687623	0.719645	0.732845	0.750325	0.763771	0.755538	0.738608	0.714989	0.691017	0.669806	0.644789	0.618867	0.590248	0.567291	0.549927	0.546975	0.568125	0.609984	0.635040	0.667344	0.694303	0.709341	0.736032	0.761371	0.807621	0.869316	0.884799	0.894051	0.930811	0.936526	0.915993	0.885446	0.870845	0.888113	0.879920	0.859605	0.840845	0.836644	0.848429	0.867908	0.855986	0.837032	0.824033	0.808293	0.796517	0.801607	0.836935	0.888169	0.901175	0.895072	0.874141	0.840963	0.810417	0.792896	0.788732	0.803307	0.816746	0.805564	0.787932	0.763009	0.729933	0.689492	0.666242	0.682885	0.697619	0.686992	0.678332	0.680409	0.676810	0.667944	0.677847	0.702052	0.714433	0.707605	0.699255	0.711174	0.720658	0.709849	0.722607	0.749578	0.770752	0.779627	0.790574	0.805520	0.808391	0.836561	0.916364	0.949493	0.972890	0.970244	0.976718	0.957331	0.935190	0.904722	0.868495	0.832320	
100 1
0.000000	0.062860	0.197561	0.000000	0.000000	0.151090	0.000000	0.000000	0.024297	0.000000	0.000000	0.000000	0.024024	0.000000	0.150530	0.000000	0.000000	0.054359	0.005815	0.086059	0.000000	0.019669	0.000000	0.000000	0.021423	0.000000	0.000000	0.064640	0.098663	0.007595	0.421731	0.068887	0.000000	0.000000	0.000000	0.069292	0.350031	0.051060	0.000000	0.000000	0.000000	0.130180	0.049260	0.139851	0.000000	0.025106	0.076453	0.000000	0.000000	0.075279	0.000000	0.011352	0.000000	0.079203	0.151552	0.090675	0.151961	0.000000	0.205585	0.000000	0.000000	0.000000	0.000000	0.213284	0.004782	0.000000	0.082259	0.073770	0.250470	1.000000	0.076068	0.000000	0.034887	0.028258	0.000000	0.079294	0.300215	0.000000	0.000000	0.181501	0.120562	0.000000	0.142801	0.000000	0.000000	0.182840	0.171969	0.083394	0.000000	0.034799	0.000000	0.000000	0.000000	0.000000	0.140814	0.000000	0.012139	0.120156	0.000000	0.000000	
100 1
0.000000	0.013575	0.069354	0.120263	0.155977	0.210799	0.254769	0.281005	0.298139	0.304242	0.300401	0.289107	0.277215	0.261537	0.272278	0.280529	0.278460	0.279932	0.277178	0.284609	0.286689	0.283901	0.274802	0.260061	0.245792	0.228947	0.209381	0.201724	0.213661	0.223116	0.306524	0.394319	0.449992	0.477360	0.483569	0.485983	0.532070	0.577467	0.594838	0.589446	0.568522	0.557273	0.548828	0.551295	0.545568	0.529556	0.516705	0.497056	0.468338	0.447109	0.422885	0.394692	0.362870	0.343722	0.352466	0.373793	0.410909	0.434628	0.474036	0.500574	0.504903	0.493495	0.471070	0.477326	0.481403	0.470416	0.463106	0.461929	0.493078	0.632001	0.770611	0.835298	0.850506	0.838659	0.808639	0.773561	0.762281	0.755729	0.729672	0.711604	0.705361	0.689141	0.675754	0.656713	0.624528	0.609761	0.617092	0.626484	0.619933	0.602277	0.574614	0.538336	0.496692	0.451982	0.431174	0.411320	0.386636	0.380167	0.370969	0.353154	
100 1
0.000000	0.057790	0.000000	0.000000	0.704216	0.000000	0.088383	0.000000	0.000000	0.078702	1.000000	0.000000	0.000000	0.000000	0.000000	0.000000	0.000000	0.289566	0.000000	0.000000	0.000000	0.000000	0.450929	0.000000	0.120649	0.000000	0.266916	0.000000	0.000000	0.000000	0.644104	0.000000	0.000000	0.000000	0.000000	0.000000	0.525092	0.000000	0.000000	0.000000	0.000000	0.000000	0.000000	0.000000	0.000000	0.051504	0.093851	0.490873	0.188922	0.000000	0.000000	0.000000	0.000000	0.000000	0.000000	0.000000	0.000000	0.000000	0.000000	0.000000	0.000000	0.000000	0.000000	0.229350	0.000000	0.000000	0.000000	0.000000	0.693217	0.000000	0.581962	0.261364	0.000000	0.000000	0.060511	0.000000	0.000000	0.000000	0.000000	0.339555	0.000000	0.000000	0.000000	0.000000	0.309885	0.488896	0.000000	0.000000	0.235628	0.358138	0.000000	0.000000	0.000000	0.000000	0.000000	0.000000	0.000000	0.000000	0.000000	0.000000	
100 1
0.000000	0.012481	0.024715	0.033444	0.186343	0.329114	0.438353	0.508721	0.543729	0.564575	0.672589	0.787852	0.833741	0.835878	0.812028	0.772930	0.724881	0.704602	0.691507	0.662647	0.623581	0.578230	0.592825	0.615307	0.628790	0.627335	0.642552	0.651767	0.638876	0.611326	0.651908	0.704300	0.717776	0.705289	0.676168	0.636607	0.654973	0.684758	0.684505	0.664166	0.630863	0.589397	0.543005	0.493925	0.443765	0.403275	0.381746	0.444034	0.532576	0.588921	0.610123	0.606814	0.586816	0.555719	0.517456	0.474814	0.429806	0.383926	0.338316	0.293864	0.251271	0.211086	0.173730	0.187386	0.203966	0.210177	0.209056	0.202412	0.324708	0.440737	0.588981	0.726810	0.805463	0.828273	0.821828	0.797882	0.759201	0.711671	0.658993	0.647365	0.644005	0.622878	0.590052	0.549786	0.552420	0.620210	0.679241	0.697903	0.715180	0.754159	0.782823	0.777950	0.751748	0.712480	0.665347	0.613645	0.559553	0.504592	0.449886	0.396311	
