10
100 1
0.000000	0.000000	0.000000	0.000000	0.000000	0.000000	0.000000	1.000000	0.953274	0.000000	0.398733	0.000000	0.000000	0.000000	0.000000	0.000000	0.000000	0.000000	0.000000	0.000000	0.000000	0.000000	0.000000	0.000000	0.000000	0.000000	0.000000	0.000000	0.000000	0.000000	0.000000	0.000000	0.000000	0.143018	0.000000	0.000000	0.000000	0.000000	0.000000	0.000000	0.000000	0.000000	0.000000	0.000000	0.000000	0.000000	0.000000	0.000000	0.000000	0.000000	0.000000	0.000000	0.000000	0.000000	0.000000	0.000000	0.000000	0.000000	0.000000	0.000000	0.000000	0.000000	0.000000	0.000000	0.000000	0.000000	0.000000	0.000000	0.000000	0.000000	0.000000	0.000000	0.000000	0.000000	0.000000	0.000000	0.000000	0.000000	0.000000	0.000000	0.000000	0.000000	0.000000	0.000000	0.000000	0.000000	0.000000	0.000000	0.000000	0.000000	0.000000	0.000000	0.515213	0.000000	0.000000	0.000000	0.000000	0.000000	0.000000	0.000000	
100 1
0.000000	0.000000	0.000000	0.000000	0.000000	0.000000	0.000000	0.194145	0.502979	0.693470	0.875785	0.969217	1.000000	0.987776	0.947125	0.888754	0.820424	0.747663	0.674323	0.603004	0.535384	0.472465	0.414765	0.362458	0.315486	0.273634	0.236588	0.203982	0.175422	0.150514	0.128872	0.110131	0.059937	0.046441	0.061393	0.055837	0.060954	0.062381	0.061288	0.058541	0.054777	0.050453	0.045897	0.041335	0.036919	0.032746	0.028872	0.025327	0.022118	0.019241	0.016680	0.014415	0.012423	0.010680	0.009160	0.007841	0.006698	0.005713	0.000000	0.000000	0.000000	0.000000	0.000000	0.000000	0.000000	0.000000	0.000000	0.000000	0.000000	0.000000	0.000000	0.000000	0.000000	0.000000	0.000000	0.000000	0.000000	0.000000	0.000000	0.000000	0.000000	0.000000	0.000000	0.000000	0.000000	0.000000	0.000000	0.000000	0.000000	0.000000	0.000000	0.000000	0.100026	0.163789	0.201149	0.219582	0.224723	0.220785	0.210891	0.197329	
100 1
0.000000	0.000000	0.000000	0.000000	0.000000	0.000000	0.027555	0.000000	0.187252	0.000000	0.066118	0.103507	0.075717	0.000000	0.170823	0.539828	0.000000	0.037706	1.000000	0.000000	0.186186	0.230512	0.000000	0.000000	0.189388	0.000000	0.000000	0.317078	0.000000	0.000000	0.031461	0.000000	0.000000	0.000000	0.308135	0.355544	0.000000	0.000000	0.000000	0.000000	0.055644	0.000000	0.000000	0.190200	0.540790	0.000000	0.265764	0.213826	0.000000	0.000000	0.000000	0.000000	0.173350	0.000000	0.000000	0.101841	0.000000	0.000000	0.000000	0.000000	0.049081	0.446198	0.073977	0.000000	0.141825	0.000000	0.000000	0.000000	0.439510	0.132579	0.191925	0.000000	0.000000	0.000000	0.000000	0.000000	0.000000	0.000000	0.345344	0.000000	0.000000	0.000000	0.000000	0.084883	0.050682	0.006787	0.000000	0.000000	0.000000	0.000000	0.000000	0.000000	0.000000	0.000000	0.327497	0.000000	0.000000	0.000000	0.000000	0.186714	
100 1
0.000000	0.000000	0.000000	0.000000	0.000000	0.000000	0.005538	0.009069	0.048774	0.073786	0.101417	0.137410	0.172241	0.189929	0.229879	0.357606	0.431473	0.474389	0.688561	0.809500	0.901391	0.979700	1.000000	0.980749	0.973685	0.936955	0.881548	0.879171	0.848689	0.800370	0.748005	0.687355	0.624879	0.555874	0.558476	0.611004	0.624325	0.612944	0.587273	0.544753	0.495263	0.460779	0.421195	0.384885	0.484312	0.528491	0.591200	0.663177	0.689633	0.678038	0.653237	0.615147	0.593079	0.567589	0.531852	0.509782	0.479109	0.442806	0.403921	0.353734	0.314357	0.377170	0.421750	0.437775	0.462638	0.462144	0.448169	0.424076	0.475632	0.507440	0.565654	0.576731	0.565044	0.544571	0.512953	0.474904	0.433795	0.385881	0.415300	0.421374	0.408014	0.388475	0.362613	0.350422	0.340923	0.322990	0.286005	0.261579	0.238662	0.210464	0.188578	0.167711	0.148213	0.114797	0.161965	0.185178	0.199973	0.203320	0.198883	0.226901	
100 1
0.000000	0.000000	0.000000	0.000000	0.000000	0.000000	0.000000	0.000000	0.000000	0.000000	0.000000	0.000000	0.000000	0.000000	0.000000	0.000000	0.000000	0.000000	0.000000	0.000000	0.000000	0.000000	0.000000	0.000000	0.000000	0.000000	0.000000	0.000000	0.000000	0.000000	0.000000	0.000000	0.000000	0.000000	1.000000	0.000000	0.000000	0.000000	0.000000	0.000000	0.000000	0.000000	0.000000	0.000000	0.000000	0.000000	0.000000	0.000000	0.000000	0.000000	0.000000	0.000000	0.000000	0.000000	0.000000	0.000000	0.000000	0.000000	0.000000	0.000000	0.000000	0.000000	0.000000	0.000000	0.000000	0.000000	0.000000	0.000000	0.000000	0.000000	0.000000	0.000000	0.000000	0.000000	0.000000	0.000000	0.000000	0.000000	0.000000	0.000000	0.000000	0.000000	0.000000	0.000000	0.000000	0.000000	0.000000	0.000000	0.000000	0.000000	0.000000	0.000000	0.000000	0.000000	0.000000	0.000000	0.000000	0.000000	0.000000	0.000000	
100 1
0.000000	0.000000	0.000000	0.000000	0.000000	0.000000	0.000000	0.000000	0.000000	0.000000	0.000000	0.000000	0.000000	0.000000	0.000000	0.000000	0.000000	0.000000	0.000000	0.000000	0.000000	0.000000	0.000000	0.000000	0.000000	0.000000	0.000000	0.000000	0.000000	0.000000	0.000000	0.000000	0.000000	0.000000	0.445108	0.728848	0.895095	0.977122	1.000000	0.982477	0.938448	0.878099	0.808792	0.735759	0.662627	0.591833	0.524931	0.462837	0.406006	0.354570	0.308441	0.267385	0.231078	0.199148	0.171201	0.146842	0.125689	0.107380	0.091578	0.000000	0.000000	0.000000	0.000000	0.000000	0.000000	0.000000	0.000000	0.000000	0.000000	0.000000	0.000000	0.000000	0.000000	0.000000	0.000000	0.000000	0.000000	0.000000	0.000000	0.000000	0.000000	0.000000	0.000000	0.000000	0.000000	0.000000	0.000000	0.000000	0.000000	0.000000	0.000000	0.000000	0.000000	0.000000	0.000000	0.000000	0.000000	0.000000	0.000000	0.000000	
100 1
0.000000	0.000000	0.000000	0.000000	0.000000	0.000000	0.000000	0.000000	0.000000	0.000000	0.000000	0.000000	0.000000	0.000000	0.000000	0.000000	0.000000	0.000000	0.000000	0.000000	0.000000	0.000000	0.000000	0.000000	0.000000	0.000000	0.000000	0.000000	0.000000	0.000000	0.000000	0.000000	0.000000	0.000000	1.000000	0.000000	0.000000	0.000000	0.000000	0.000000	0.000000	0.000000	0.000000	0.000000	0.000000	0.000000	0.000000	0.000000	0.000000	0.000000	0.000000	0.000000	0.000000	0.000000	0.000000	0.000000	0.000000	0.000000	0.000000	0.000000	0.000000	0.000000	0.000000	0.000000	0.000000	0.000000	0.000000	0.000000	0.000000	0.000000	0.000000	0.000000	0.000000	0.000000	0.000000	0.000000	0.000000	0.000000	0.000000	0.000000	0.000000	0.000000	0.000000	0.000000	0.000000	0.000000	0.000000	0.000000	0.000000	0.000000	0.000000	0.000000	0.000000	0.000000	0.000000	0.000000	0.000000	0.000000	0.000000	0.000000	
100 1
0.000000	0.000000	0.000000	0.000000	0.000000	0.000000	0.000000	0.000000	0.000000	0.000000	0.000000	0.000000	0.000000	0.000000	0.000000	0.000000	0.000000	0.000000	0.000000	0.000000	0.000000	0.000000	0.000000	0.000000	0.000000	0.000000	0.000000	0.000000	0.000000	0.000000	0.000000	0.000000	0.000000	0.000000	0.445108	0.728848	0.895095	0.977122	1.000000	0.982477	0.938448	0.878099	0.808792	0.735759	0.662627	0.591833	0.524931	0.462837	0.406006	0.354570	0.308441	0.267385	0.231078	0.199148	0.171201	0.146842	0.125689	0.107380	0.091578	0.000000	0.000000	0.000000	0.000000	0.000000	0.000000	0.000000	0.000000	0.000000	0.000000	0.000000	0.000000	0.000000	0.000000	0.000000	0.000000	0.000000	0.000000	0.000000	0.000000	0.000000	0.000000	0.000000	0.000000	0.000000	0.000000	0.000000	0.000000	0.000000	0.000000	0.000000	0.000000	0.000000	0.000000	0.000000	0.000000	0.000000	0.000000	0.000000	0.000000	0.000000	
100 1
0.000000	0.044860	0.000000	0.516083	0.000000	0.123389	0.000000	0.000000	0.677328	0.000000	0.000000	0.000000	0.000000	0.000000	0.188951	0.000000	0.000000	0.000000	0.000000	0.000000	0.000000	0.771924	0.000000	0.083023	0.000000	0.000000	0.000000	0.000000	0.000000	0.520380	0.712491	0.081206	0.000000	0.436159	0.000000	0.000000	0.000000	0.111517	0.000000	0.000000	0.297183	0.000000	0.183004	0.000000	0.000000	0.000000	0.803600	0.175488	0.000000	0.000000	0.073283	0.000000	0.000000	0.016498	0.022538	0.000000	0.400781	0.042784	0.000000	1.000000	0.000000	0.000000	0.000000	0.000000	0.000000	0.000000	0.000000	0.000000	0.000000	0.000000	0.000000	0.111612	0.000000	0.000000	0.000000	0.000000	0.000000	0.000000	0.000000	0.684628	0.000000	0.000000	0.000000	0.000000	0.000000	0.000000	0.000000	0.000000	0.000000	0.453356	0.000000	0.000000	0.333939	0.000000	0.000000	0.000000	0.000000	0.000000	0.000000	0.000000	
100 1
0.000000	0.009694	0.015874	0.131019	0.203898	0.272714	0.309882	0.324615	0.470193	0.552327	0.589234	0.594613	0.578680	0.548985	0.551873	0.535676	0.507216	0.471473	0.432022	0.391381	0.351279	0.479666	0.549965	0.596958	0.608844	0.596805	0.567427	0.530426	0.468657	0.539686	0.718862	0.836572	0.887987	0.961885	1.000000	0.992691	0.955173	0.922737	0.870675	0.800014	0.796214	0.767504	0.762586	0.734233	0.691101	0.639480	0.728299	0.824833	0.859296	0.856636	0.842542	0.805409	0.754054	0.698418	0.623345	0.541075	0.572917	0.587102	0.560808	0.753851	0.858482	0.900409	0.894706	0.864808	0.816350	0.745793	0.682849	0.611291	0.548692	0.488701	0.432430	0.374198	0.340175	0.311421	0.281914	0.250097	0.222735	0.197076	0.172775	0.298394	0.373466	0.396344	0.408981	0.405289	0.351639	0.333925	0.311079	0.285543	0.259043	0.330737	0.367928	0.380768	0.449027	0.480028	0.485035	0.472454	0.444272	0.414109	0.380283	0.345113	
100 1
0.000000	0.043652	0.000000	0.000000	0.000000	0.000000	0.000000	0.000000	0.000000	0.000000	0.000000	0.000000	0.000000	0.000000	0.000000	1.000000	0.000000	0.000000	0.000000	0.000000	0.400266	0.000000	0.000000	0.000000	0.000000	0.000000	0.000000	0.000000	0.000000	0.000000	0.000000	0.000000	0.000000	0.000000	0.000000	0.000000	0.000000	0.000000	0.000000	0.000000	0.000000	0.000000	0.000000	0.000000	0.000000	0.000000	0.000000	0.000000	0.000000	0.000000	0.000000	0.000000	0.000000	0.000000	0.000000	0.000000	0.000000	0.000000	0.000000	0.000000	0.000000	0.000000	0.000000	0.000000	0.000000	0.000000	0.000000	0.000000	0.000000	0.000000	0.626565	0.000000	0.000000	0.000000	0.000000	0.000000	0.000000	0.000000	0.000000	0.000000	0.000000	0.000000	0.000000	0.000000	0.000000	0.000000	0.000000	0.000000	0.000000	0.000000	0.000000	0.000000	0.000000	0.000000	0.000000	0.000000	0.000000	0.000000	0.000000	0.000000	
100 1
0.000000	0.015634	0.025600	0.031439	0.034320	0.035124	0.034508	0.032962	0.030842	0.028408	0.025843	0.023274	0.020788	0.018438	0.016257	0.372414	0.598917	0.731067	0.795628	0.812761	0.940896	0.995872	1.000000	0.969909	0.917868	0.852824	0.778463	0.705194	0.632909	0.563658	0.498717	0.438798	0.384215	0.335003	0.291007	0.251953	0.217496	0.187252	0.160826	0.137828	0.055139	0.047294	0.040481	0.034584	0.029495	0.000000	0.000000	0.000000	0.000000	0.000000	0.000000	0.000000	0.000000	0.000000	0.000000	0.000000	0.000000	0.000000	0.000000	0.000000	0.000000	0.000000	0.000000	0.000000	0.000000	0.000000	0.000000	0.000000	0.000000	0.000000	0.224407	0.367457	0.451273	0.492628	0.504162	0.495328	0.473130	0.442704	0.407762	0.370942	0.334072	0.298380	0.264650	0.233345	0.204693	0.178761	0.155504	0.134805	0.116501	0.100403	0.086313	0.074032	0.063368	0.054137	0.046170	0.000000	0.000000	0.000000	0.000000	0.000000	
100 1
0.000000	0.000000	0.000000	0.000000	0.000000	0.000000	0.000000	0.000000	0.000000	0.000000	0.000000	0.000000	0.627326	0.000000	0.000000	0.000000	0.000000	0.000000	0.000000	0.000000	0.000000	0.000000	0.000000	0.000000	0.000000	0.000000	0.000000	0.000000	0.000000	0.000000	0.095022	1.000000	0.000000	0.000000	0.000000	0.596823	0.000000	0.155474	0.000000	0.000000	0.000000	0.000000	0.000000	0.000000	0.000000	0.000000	0.452168	0.000000	0.308462	0.000000	0.000000	0.000000	0.000000	0.936187	0.192946	0.000000	0.000000	0.000000	0.000000	0.000000	0.000000	0.000000	0.000000	0.000000	0.000000	0.000000	0.000000	0.678400	0.000000	0.000000	0.000000	0.000000	0.000000	0.000000	0.000000	0.000000	0.000000	0.000000	0.000000	0.000000	0.000000	0.000000	0.000000	0.000000	0.000000	0.000000	0.000000	0.000000	0.000000	0.000000	0.000000	0.000000	0.000000	0.135999	0.000000	0.000000	0.000000	0.000000	0.000000	0.000000	
100 1
0.000000	0.000000	0.000000	0.000000	0.000000	0.000000	0.000000	0.000000	0.000000	0.000000	0.000000	0.000000	0.154114	0.252355	0.309916	0.338317	0.346239	0.340171	0.324927	0.304032	0.280035	0.254748	0.229427	0.204915	0.181751	0.160252	0.140575	0.122766	0.106794	0.092579	0.103352	0.352845	0.508491	0.596115	0.635264	0.787253	0.863266	0.897049	0.911474	0.891193	0.848316	0.791699	0.727734	0.660945	0.594457	0.530356	0.581044	0.595929	0.662104	0.684707	0.677359	0.650177	0.610593	0.793986	0.938229	1.000000	0.968729	0.949818	0.905932	0.846747	0.753565	0.686563	0.612400	0.547831	0.486549	0.429483	0.377119	0.496287	0.559860	0.584079	0.581121	0.540583	0.510967	0.461050	0.422890	0.383416	0.344357	0.306860	0.231351	0.196549	0.173299	0.152020	0.132761	0.115489	0.100116	0.086522	0.074567	0.064102	0.054982	0.047061	0.040206	0.034289	0.000000	0.033411	0.054709	0.067187	0.073345	0.075062	0.073746	0.070442	
100 1
0.524514	0.269121	0.447542	0.000000	0.005470	0.033792	0.111829	0.236890	0.076484	0.000000	0.100189	0.017489	0.094555	0.067995	0.032339	0.056735	0.025487	0.083836	0.065419	0.138330	0.207726	0.227275	0.000000	0.280071	0.056122	0.124782	0.293333	0.094633	0.732073	0.000000	0.078960	0.619276	0.129509	0.000000	0.074728	0.034679	0.580872	0.000000	0.108909	0.022568	0.245493	0.173798	0.436166	0.013869	0.000000	0.188552	0.108112	0.092711	0.171041	0.288950	0.634057	0.052647	0.092981	0.107172	0.000000	0.065725	0.113525	0.192060	0.175853	0.353878	0.000000	0.047485	0.106772	0.013744	0.039216	0.000000	0.191609	0.335966	0.000000	0.000000	0.152216	0.144988	0.040744	0.084531	0.249474	0.183326	0.039319	0.028917	0.128815	0.267632	0.032053	0.015655	0.381355	0.128424	0.182948	0.052835	0.294052	0.113663	0.103367	1.000000	0.107467	0.369124	0.101086	0.388196	0.000000	0.159016	0.061356	0.071566	0.028609	0.114245	
100 1
0.078006	0.167755	0.288961	0.360714	0.397772	0.414568	0.428836	0.459539	0.476395	0.472040	0.468511	0.453351	0.442355	0.430561	0.413317	0.396615	0.376177	0.362585	0.351289	0.352747	0.373026	0.408162	0.418304	0.453009	0.469733	0.470402	0.502764	0.515870	0.625758	0.678713	0.702884	0.785868	0.831054	0.836902	0.826005	0.794106	0.834617	0.832243	0.819670	0.788217	0.776929	0.770181	0.803555	0.801600	0.771689	0.751748	0.728098	0.706770	0.687390	0.699068	0.776122	0.805017	0.815314	0.794232	0.769018	0.734565	0.689703	0.674859	0.671542	0.697935	0.693323	0.660089	0.643915	0.611122	0.576537	0.528478	0.507900	0.519583	0.518927	0.501720	0.491425	0.490990	0.480426	0.467576	0.476680	0.483790	0.490141	0.481250	0.477750	0.501705	0.504332	0.490240	0.518725	0.539231	0.556854	0.565485	0.595183	0.610630	0.618125	0.750818	0.831880	0.908788	0.940689	0.995787	1.000000	0.989648	0.958661	0.918944	0.865014	0.812666	
100 1
0.000000	0.062860	0.197561	0.000000	0.000000	0.151090	0.000000	0.000000	0.024297	0.000000	0.000000	0.000000	0.024024	0.000000	0.150530	0.000000	0.000000	0.054359	0.005815	0.086059	0.000000	0.019669	0.000000	0.000000	0.021423	0.000000	0.000000	0.064640	0.098663	0.007595	0.421731	0.068887	0.000000	0.000000	0.000000	0.069292	0.350031	0.051060	0.000000	0.000000	0.000000	0.130180	0.049260	0.139851	0.000000	0.025106	0.076453	0.000000	0.000000	0.075279	0.000000	0.011352	0.000000	0.079203	0.151552	0.090675	0.151961	0.000000	0.205585	0.000000	0.000000	0.000000	0.000000	0.213284	0.004782	0.000000	0.082259	0.073770	0.250470	1.000000	0.076068	0.000000	0.034887	0.028258	0.000000	0.079294	0.300215	0.000000	0.000000	0.181501	0.120562	0.000000	0.142801	0.000000	0.000000	0.182840	0.171969	0.083394	0.000000	0.034799	0.000000	0.000000	0.000000	0.000000	0.140814	0.000000	0.012139	0.120156	0.000000	0.000000	
100 1
0.000000	0.015233	0.072817	0.109025	0.129713	0.175932	0.201132	0.211416	0.217250	0.214022	0.204826	0.191932	0.182803	0.170677	0.193419	0.202307	0.201617	0.207703	0.206367	0.219544	0.221164	0.219749	0.211579	0.199151	0.189468	0.176751	0.159751	0.152484	0.173113	0.183094	0.279551	0.356765	0.396800	0.409567	0.405479	0.406207	0.478170	0.522049	0.535111	0.519894	0.497641	0.497919	0.491374	0.506300	0.496210	0.482102	0.474496	0.454463	0.426102	0.410422	0.387142	0.361567	0.329799	0.314832	0.334155	0.340451	0.381479	0.398748	0.447041	0.464723	0.458364	0.426497	0.400652	0.423553	0.426146	0.413882	0.406469	0.408279	0.452482	0.714246	0.883610	0.965697	1.000000	0.996983	0.959005	0.923768	0.942062	0.923750	0.877759	0.858285	0.847460	0.808936	0.796216	0.752799	0.705831	0.695462	0.707332	0.712256	0.683098	0.656465	0.617202	0.567111	0.514516	0.454188	0.398865	0.378867	0.358496	0.360697	0.350287	0.332744	
100 1
0.000000	0.057790	0.000000	0.000000	0.704216	0.000000	0.088383	0.000000	0.000000	0.078702	1.000000	0.000000	0.000000	0.000000	0.000000	0.000000	0.000000	0.289566	0.000000	0.000000	0.000000	0.000000	0.450929	0.000000	0.120649	0.000000	0.266916	0.000000	0.000000	0.000000	0.644104	0.000000	0.000000	0.000000	0.000000	0.000000	0.525092	0.000000	0.000000	0.000000	0.000000	0.000000	0.000000	0.000000	0.000000	0.051504	0.093851	0.490873	0.188922	0.000000	0.000000	0.000000	0.000000	0.000000	0.000000	0.000000	0.000000	0.000000	0.000000	0.000000	0.000000	0.000000	0.000000	0.229350	0.000000	0.000000	0.000000	0.000000	0.693217	0.000000	0.581962	0.261364	0.000000	0.000000	0.060511	0.000000	0.000000	0.000000	0.000000	0.339555	0.000000	0.000000	0.000000	0.000000	0.309885	0.488896	0.000000	0.000000	0.235628	0.358138	0.000000	0.000000	0.000000	0.000000	0.000000	0.000000	0.000000	0.000000	0.000000	0.000000	
100 1
0.000000	0.015118	0.024755	0.030401	0.217407	0.335617	0.426948	0.474140	0.490195	0.505437	0.760642	0.906718	0.974842	0.988474	0.965133	0.917774	0.855871	0.862004	0.837790	0.794030	0.738607	0.677186	0.731724	0.744238	0.759734	0.745157	0.778076	0.776662	0.750193	0.675528	0.797183	0.848486	0.858184	0.836486	0.790849	0.691282	0.775266	0.806088	0.800261	0.770060	0.724513	0.670175	0.598460	0.541171	0.484986	0.444862	0.427899	0.510213	0.614315	0.658381	0.670640	0.644588	0.615575	0.575899	0.530381	0.452924	0.409358	0.366704	0.326063	0.288106	0.253196	0.197412	0.172476	0.210091	0.228401	0.233170	0.228705	0.218197	0.385326	0.484695	0.685256	0.863108	0.934856	0.961283	0.970057	0.944063	0.895619	0.833717	0.764828	0.782345	0.768381	0.733772	0.686463	0.632194	0.656108	0.778472	0.834916	0.845317	0.875642	0.969159	1.000000	0.987815	0.947189	0.857064	0.793500	0.698148	0.620309	0.557180	0.496555	0.436827	
