10
100 1
0.000000	0.000000	0.000000	0.000000	0.000000	0.000000	0.000000	1.000000	0.953274	0.000000	0.398733	0.000000	0.000000	0.000000	0.000000	0.000000	0.000000	0.000000	0.000000	0.000000	0.000000	0.000000	0.000000	0.000000	0.000000	0.000000	0.000000	0.000000	0.000000	0.000000	0.000000	0.000000	0.000000	0.143018	0.000000	0.000000	0.000000	0.000000	0.000000	0.000000	0.000000	0.000000	0.000000	0.000000	0.000000	0.000000	0.000000	0.000000	0.000000	0.000000	0.000000	0.000000	0.000000	0.000000	0.000000	0.000000	0.000000	0.000000	0.000000	0.000000	0.000000	0.000000	0.000000	0.000000	0.000000	0.000000	0.000000	0.000000	0.000000	0.000000	0.000000	0.000000	0.000000	0.000000	0.000000	0.000000	0.000000	0.000000	0.000000	0.000000	0.000000	0.000000	0.000000	0.000000	0.000000	0.000000	0.000000	0.000000	0.000000	0.000000	0.000000	0.000000	0.515213	0.000000	0.000000	0.000000	0.000000	0.000000	0.000000	0.000000	
100 1
0.000000	0.000000	0.000000	0.000000	0.000000	0.000000	0.000000	0.231128	0.508592	0.737662	0.853258	0.931984	0.937160	0.902339	0.849115	0.788431	0.725486	0.662694	0.601168	0.541436	0.483779	0.428399	0.375481	0.325226	0.277852	0.233581	0.192623	0.155156	0.121313	0.091165	0.064715	0.041895	0.022576	0.040672	0.054087	0.062620	0.067573	0.069638	0.069369	0.067255	0.063732	0.059185	0.053946	0.048300	0.042483	0.036688	0.031069	0.025742	0.020794	0.016283	0.012243	0.008689	0.005620	0.003020	0.000866	-0.000875	-0.002237	-0.003262	-0.003989	-0.004459	-0.004711	-0.004784	-0.004710	-0.004523	-0.004250	-0.003916	-0.003542	-0.003148	-0.002747	-0.002353	-0.001974	-0.001619	-0.001291	-0.000994	-0.000731	-0.000501	-0.000304	-0.000139	-0.000003	0.000105	0.000188	0.000249	0.000291	0.000316	0.000328	0.000328	0.000320	0.000304	0.000283	0.000259	0.000232	0.000205	0.122302	0.214351	0.277985	0.318540	0.340289	0.347175	0.342692	0.329782	
100 1
0.000000	0.000000	0.000000	0.000000	0.000000	0.000000	0.027555	0.000000	0.187252	0.000000	0.066118	0.103507	0.075717	0.000000	0.170823	0.539828	0.000000	0.037706	1.000000	0.000000	0.186186	0.230512	0.000000	0.000000	0.189388	0.000000	0.000000	0.317078	0.000000	0.000000	0.031461	0.000000	0.000000	0.000000	0.308135	0.355544	0.000000	0.000000	0.000000	0.000000	0.055644	0.000000	0.000000	0.190200	0.540790	0.000000	0.265764	0.213826	0.000000	0.000000	0.000000	0.000000	0.173350	0.000000	0.000000	0.101841	0.000000	0.000000	0.000000	0.000000	0.049081	0.446198	0.073977	0.000000	0.141825	0.000000	0.000000	0.000000	0.439510	0.132579	0.191925	0.000000	0.000000	0.000000	0.000000	0.000000	0.000000	0.000000	0.345344	0.000000	0.000000	0.000000	0.000000	0.084883	0.050682	0.006787	0.000000	0.000000	0.000000	0.000000	0.000000	0.000000	0.000000	0.000000	0.327497	0.000000	0.000000	0.000000	0.000000	0.186714	
100 1
0.000000	0.000000	0.000000	0.000000	0.000000	0.000000	0.006589	0.011665	0.059838	0.096597	0.137666	0.189962	0.243010	0.277863	0.331982	0.452991	0.559547	0.621851	0.679566	0.833369	0.899825	0.925141	0.932006	0.900717	0.863383	0.831598	0.785599	0.759682	0.753833	0.727736	0.692895	0.650805	0.603366	0.553256	0.549348	0.595867	0.642707	0.655287	0.643363	0.615852	0.588326	0.554901	0.515637	0.506123	0.560566	0.632726	0.691193	0.747803	0.779845	0.773845	0.744344	0.701859	0.675843	0.651540	0.616532	0.591297	0.562326	0.526133	0.485455	0.442366	0.408400	0.447711	0.503928	0.533769	0.562133	0.572802	0.563554	0.540666	0.568062	0.624453	0.676783	0.705548	0.702083	0.677666	0.640808	0.596933	0.549371	0.500180	0.506233	0.519314	0.514379	0.496138	0.468922	0.452415	0.440527	0.422501	0.397530	0.367829	0.335259	0.301220	0.266781	0.232779	0.199871	0.168572	0.211786	0.245335	0.263642	0.270302	0.267939	0.298417	
100 1
0.000000	0.000000	0.000000	0.000000	0.000000	0.000000	0.000000	0.000000	0.000000	0.000000	0.000000	0.000000	0.000000	0.000000	0.000000	0.000000	0.000000	0.000000	0.000000	0.000000	0.000000	0.000000	0.000000	0.000000	0.000000	0.000000	0.000000	0.000000	0.000000	0.000000	0.000000	0.000000	0.000000	0.000000	1.000000	0.000000	0.000000	0.000000	0.000000	0.000000	0.000000	0.000000	0.000000	0.000000	0.000000	0.000000	0.000000	0.000000	0.000000	0.000000	0.000000	0.000000	0.000000	0.000000	0.000000	0.000000	0.000000	0.000000	0.000000	0.000000	0.000000	0.000000	0.000000	0.000000	0.000000	0.000000	0.000000	0.000000	0.000000	0.000000	0.000000	0.000000	0.000000	0.000000	0.000000	0.000000	0.000000	0.000000	0.000000	0.000000	0.000000	0.000000	0.000000	0.000000	0.000000	0.000000	0.000000	0.000000	0.000000	0.000000	0.000000	0.000000	0.000000	0.000000	0.000000	0.000000	0.000000	0.000000	0.000000	0.000000	
100 1
0.000000	0.000000	0.000000	0.000000	0.000000	0.000000	0.000000	0.000000	0.000000	0.000000	0.000000	0.000000	0.000000	0.000000	0.000000	0.000000	0.000000	0.000000	0.000000	0.000000	0.000000	0.000000	0.000000	0.000000	0.000000	0.000000	0.000000	0.000000	0.000000	0.000000	0.000000	0.000000	0.000000	0.000000	0.231128	0.396772	0.504441	0.563956	0.587306	0.585386	0.566636	0.537060	0.500761	0.460514	0.418214	0.375193	0.332426	0.290657	0.250475	0.212354	0.176677	0.143740	0.113758	0.086862	0.063110	0.042480	0.024889	0.010193	-0.001795	-0.011297	-0.018559	-0.023835	-0.027385	-0.029464	-0.030312	-0.030158	-0.029210	-0.027654	-0.025659	-0.023366	-0.020901	-0.018364	-0.015840	-0.013396	-0.011082	-0.008934	-0.006979	-0.005230	-0.003693	-0.002367	-0.001246	-0.000318	0.000429	0.001013	0.001451	0.001760	0.001958	0.002062	0.002089	0.002053	0.001968	0.001846	0.001699	0.001535	0.001362	0.001187	0.001016	0.000851	0.000696	0.000554	
100 1
0.000000	0.000000	0.000000	0.000000	0.000000	0.000000	0.000000	0.000000	0.000000	0.000000	0.000000	0.000000	0.000000	0.000000	0.000000	0.000000	0.000000	0.000000	0.000000	0.000000	0.000000	0.000000	0.000000	0.000000	0.000000	0.000000	0.000000	0.000000	0.000000	0.000000	0.000000	0.000000	0.000000	0.000000	1.000000	0.000000	0.000000	0.000000	0.000000	0.000000	0.000000	0.000000	0.000000	0.000000	0.000000	0.000000	0.000000	0.000000	0.000000	0.000000	0.000000	0.000000	0.000000	0.000000	0.000000	0.000000	0.000000	0.000000	0.000000	0.000000	0.000000	0.000000	0.000000	0.000000	0.000000	0.000000	0.000000	0.000000	0.000000	0.000000	0.000000	0.000000	0.000000	0.000000	0.000000	0.000000	0.000000	0.000000	0.000000	0.000000	0.000000	0.000000	0.000000	0.000000	0.000000	0.000000	0.000000	0.000000	0.000000	0.000000	0.000000	0.000000	0.000000	0.000000	0.000000	0.000000	0.000000	0.000000	0.000000	0.000000	
100 1
0.000000	0.000000	0.000000	0.000000	0.000000	0.000000	0.000000	0.000000	0.000000	0.000000	0.000000	0.000000	0.000000	0.000000	0.000000	0.000000	0.000000	0.000000	0.000000	0.000000	0.000000	0.000000	0.000000	0.000000	0.000000	0.000000	0.000000	0.000000	0.000000	0.000000	0.000000	0.000000	0.000000	0.000000	0.231128	0.396772	0.504441	0.563956	0.587306	0.585386	0.566636	0.537060	0.500761	0.460514	0.418214	0.375193	0.332426	0.290657	0.250475	0.212354	0.176677	0.143740	0.113758	0.086862	0.063110	0.042480	0.024889	0.010193	-0.001795	-0.011297	-0.018559	-0.023835	-0.027385	-0.029464	-0.030312	-0.030158	-0.029210	-0.027654	-0.025659	-0.023366	-0.020901	-0.018364	-0.015840	-0.013396	-0.011082	-0.008934	-0.006979	-0.005230	-0.003693	-0.002367	-0.001246	-0.000318	0.000429	0.001013	0.001451	0.001760	0.001958	0.002062	0.002089	0.002053	0.001968	0.001846	0.001699	0.001535	0.001362	0.001187	0.001016	0.000851	0.000696	0.000554	
100 1
0.000000	0.044860	0.000000	0.516083	0.000000	0.123389	0.000000	0.000000	0.677328	0.000000	0.000000	0.000000	0.000000	0.000000	0.188951	0.000000	0.000000	0.000000	0.000000	0.000000	0.000000	0.771924	0.000000	0.083023	0.000000	0.000000	0.000000	0.000000	0.000000	0.520380	0.712491	0.081206	0.000000	0.436159	0.000000	0.000000	0.000000	0.111517	0.000000	0.000000	0.297183	0.000000	0.183004	0.000000	0.000000	0.000000	0.803600	0.175488	0.000000	0.000000	0.073283	0.000000	0.000000	0.016498	0.022538	0.000000	0.400781	0.042784	0.000000	1.000000	0.000000	0.000000	0.000000	0.000000	0.000000	0.000000	0.000000	0.000000	0.000000	0.000000	0.000000	0.111612	0.000000	0.000000	0.000000	0.000000	0.000000	0.000000	0.000000	0.684628	0.000000	0.000000	0.000000	0.000000	0.000000	0.000000	0.000000	0.000000	0.000000	0.453356	0.000000	0.000000	0.333939	0.000000	0.000000	0.000000	0.000000	0.000000	0.000000	0.000000	
100 1
0.000000	0.010727	0.018990	0.145457	0.241432	0.332453	0.393741	0.427478	0.527548	0.637625	0.691425	0.703214	0.688068	0.656717	0.642531	0.627605	0.599565	0.562820	0.520928	0.476281	0.430482	0.490727	0.586117	0.646617	0.671030	0.665991	0.642060	0.606690	0.564686	0.582951	0.664993	0.795588	0.854948	0.865947	0.899885	0.887106	0.847110	0.805707	0.763557	0.713444	0.692711	0.686408	0.685588	0.678623	0.653994	0.617917	0.636289	0.743225	0.806077	0.815442	0.800192	0.769630	0.726001	0.677975	0.630477	0.580992	0.583681	0.609410	0.612847	0.648988	0.789169	0.847823	0.849484	0.819474	0.773380	0.719704	0.662912	0.605348	0.548268	0.492393	0.438184	0.408398	0.378510	0.345482	0.310846	0.275737	0.241019	0.207366	0.175310	0.285375	0.381705	0.441623	0.472101	0.480302	0.472392	0.453231	0.426469	0.394786	0.360149	0.405249	0.451486	0.472500	0.525610	0.569298	0.583156	0.575283	0.552895	0.521204	0.483791	0.443092	
100 1
0.000000	0.043652	0.000000	0.000000	0.000000	0.000000	0.000000	0.000000	0.000000	0.000000	0.000000	0.000000	0.000000	0.000000	0.000000	1.000000	0.000000	0.000000	0.000000	0.000000	0.400266	0.000000	0.000000	0.000000	0.000000	0.000000	0.000000	0.000000	0.000000	0.000000	0.000000	0.000000	0.000000	0.000000	0.000000	0.000000	0.000000	0.000000	0.000000	0.000000	0.000000	0.000000	0.000000	0.000000	0.000000	0.000000	0.000000	0.000000	0.000000	0.000000	0.000000	0.000000	0.000000	0.000000	0.000000	0.000000	0.000000	0.000000	0.000000	0.000000	0.000000	0.000000	0.000000	0.000000	0.000000	0.000000	0.000000	0.000000	0.000000	0.000000	0.626565	0.000000	0.000000	0.000000	0.000000	0.000000	0.000000	0.000000	0.000000	0.000000	0.000000	0.000000	0.000000	0.000000	0.000000	0.000000	0.000000	0.000000	0.000000	0.000000	0.000000	0.000000	0.000000	0.000000	0.000000	0.000000	0.000000	0.000000	0.000000	0.000000	
100 1
0.000000	0.010438	0.018479	0.024172	0.028008	0.030290	0.031276	0.031206	0.030296	0.028741	0.026716	0.024371	0.021836	0.019219	0.016608	0.241650	0.405691	0.511717	0.569623	0.591569	0.634820	0.680335	0.689903	0.674365	0.643344	0.603260	0.558142	0.510500	0.461939	0.413531	0.366042	0.320059	0.276060	0.234443	0.195543	0.159631	0.126911	0.097515	0.071499	0.048847	0.029474	0.013235	-0.000067	-0.010663	-0.018812	-0.024790	-0.028872	-0.031333	-0.032435	-0.032425	-0.031529	-0.029952	-0.027876	-0.025459	-0.022837	-0.020123	-0.017410	-0.014772	-0.012265	-0.009932	-0.007802	-0.005891	-0.004207	-0.002749	-0.001513	-0.000487	0.000345	0.000997	0.001490	0.001842	0.149764	0.260316	0.335824	0.382634	0.406401	0.412402	0.405202	0.388506	0.365206	0.337525	0.307160	0.275419	0.243318	0.211656	0.181063	0.152031	0.124935	0.100048	0.077550	0.057538	0.040034	0.024999	0.012336	0.001909	-0.006451	-0.012935	-0.017748	-0.021095	-0.023184	-0.024214	
100 1
0.000000	0.000000	0.000000	0.000000	0.000000	0.000000	0.000000	0.000000	0.000000	0.000000	0.000000	0.000000	0.627326	0.000000	0.000000	0.000000	0.000000	0.000000	0.000000	0.000000	0.000000	0.000000	0.000000	0.000000	0.000000	0.000000	0.000000	0.000000	0.000000	0.000000	0.095022	1.000000	0.000000	0.000000	0.000000	0.596823	0.000000	0.155474	0.000000	0.000000	0.000000	0.000000	0.000000	0.000000	0.000000	0.000000	0.452168	0.000000	0.308462	0.000000	0.000000	0.000000	0.000000	0.936187	0.192946	0.000000	0.000000	0.000000	0.000000	0.000000	0.000000	0.000000	0.000000	0.000000	0.000000	0.000000	0.000000	0.678400	0.000000	0.000000	0.000000	0.000000	0.000000	0.000000	0.000000	0.000000	0.000000	0.000000	0.000000	0.000000	0.000000	0.000000	0.000000	0.000000	0.000000	0.000000	0.000000	0.000000	0.000000	0.000000	0.000000	0.000000	0.000000	0.135999	0.000000	0.000000	0.000000	0.000000	0.000000	0.000000	
100 1
0.000000	0.000000	0.000000	0.000000	0.000000	0.000000	0.000000	0.000000	0.000000	0.000000	0.000000	0.000000	0.148076	0.258618	0.334190	0.381124	0.405047	0.411213	0.404172	0.387621	0.364454	0.336889	0.306628	0.274978	0.242957	0.211367	0.180836	0.151858	0.124809	0.099963	0.099904	0.303879	0.466981	0.568333	0.619022	0.679142	0.764102	0.805175	0.815571	0.794087	0.754359	0.705233	0.651702	0.596514	0.541208	0.486691	0.502880	0.533930	0.583776	0.623559	0.632107	0.618590	0.590913	0.621507	0.753887	0.833083	0.848828	0.826766	0.784867	0.733298	0.677480	0.620265	0.563180	0.507082	0.452500	0.399819	0.349354	0.414727	0.494594	0.537873	0.552081	0.545631	0.525201	0.495636	0.460327	0.421635	0.381230	0.340322	0.299821	0.260433	0.222721	0.187133	0.154023	0.123652	0.096201	0.071764	0.050362	0.031944	0.016398	0.003563	-0.006761	-0.014801	-0.020801	0.007599	0.029917	0.046229	0.057829	0.065450	0.069714	0.071193	
100 1
0.524514	0.269121	0.447542	0.000000	0.005470	0.033792	0.111829	0.236890	0.076484	0.000000	0.100189	0.017489	0.094555	0.067995	0.032339	0.056735	0.025487	0.083836	0.065419	0.138330	0.207726	0.227275	0.000000	0.280071	0.056122	0.124782	0.293333	0.094633	0.732073	0.000000	0.078960	0.619276	0.129509	0.000000	0.074728	0.034679	0.580872	0.000000	0.108909	0.022568	0.245493	0.173798	0.436166	0.013869	0.000000	0.188552	0.108112	0.092711	0.171041	0.288950	0.634057	0.052647	0.092981	0.107172	0.000000	0.065725	0.113525	0.192060	0.175853	0.353878	0.000000	0.047485	0.106772	0.013744	0.039216	0.000000	0.191609	0.335966	0.000000	0.000000	0.152216	0.144988	0.040744	0.084531	0.249474	0.183326	0.039319	0.028917	0.128815	0.267632	0.032053	0.015655	0.381355	0.128424	0.182948	0.052835	0.294052	0.113663	0.103367	1.000000	0.107467	0.369124	0.101086	0.388196	0.000000	0.159016	0.061356	0.071566	0.028609	0.114245	
100 1
0.124303	0.273717	0.453800	0.590382	0.663825	0.694402	0.707540	0.725388	0.744550	0.739756	0.725959	0.704007	0.682686	0.664196	0.641671	0.618568	0.592153	0.572194	0.557324	0.556874	0.578989	0.621101	0.649253	0.680329	0.710574	0.726986	0.748740	0.778032	0.785001	0.878167	0.905215	0.880851	0.938770	0.952179	0.926591	0.887258	0.843286	0.880547	0.880427	0.860838	0.838182	0.835333	0.836693	0.871931	0.864033	0.842911	0.829612	0.813679	0.800780	0.802343	0.811270	0.892911	0.917734	0.911320	0.884769	0.844604	0.808708	0.788045	0.784950	0.795677	0.820417	0.813633	0.796407	0.770438	0.736090	0.693833	0.670640	0.683726	0.706671	0.700713	0.694526	0.697964	0.696303	0.688493	0.695828	0.720746	0.736364	0.730032	0.720601	0.727778	0.740342	0.730307	0.734083	0.766645	0.790651	0.802419	0.807194	0.824844	0.828475	0.784315	0.913087	0.954130	0.990605	0.972464	0.983656	0.957196	0.927423	0.888902	0.845124	0.804831	
100 1
0.000000	0.062860	0.197561	0.000000	0.000000	0.151090	0.000000	0.000000	0.024297	0.000000	0.000000	0.000000	0.024024	0.000000	0.150530	0.000000	0.000000	0.054359	0.005815	0.086059	0.000000	0.019669	0.000000	0.000000	0.021423	0.000000	0.000000	0.064640	0.098663	0.007595	0.421731	0.068887	0.000000	0.000000	0.000000	0.069292	0.350031	0.051060	0.000000	0.000000	0.000000	0.130180	0.049260	0.139851	0.000000	0.025106	0.076453	0.000000	0.000000	0.075279	0.000000	0.011352	0.000000	0.079203	0.151552	0.090675	0.151961	0.000000	0.205585	0.000000	0.000000	0.000000	0.000000	0.213284	0.004782	0.000000	0.082259	0.073770	0.250470	1.000000	0.076068	0.000000	0.034887	0.028258	0.000000	0.079294	0.300215	0.000000	0.000000	0.181501	0.120562	0.000000	0.142801	0.000000	0.000000	0.182840	0.171969	0.083394	0.000000	0.034799	0.000000	0.000000	0.000000	0.000000	0.140814	0.000000	0.012139	0.120156	0.000000	0.000000	
100 1
0.000000	0.015031	0.073494	0.117809	0.148690	0.202899	0.241135	0.263573	0.278887	0.283217	0.278650	0.267434	0.256822	0.241786	0.256497	0.263392	0.261055	0.264105	0.261174	0.270608	0.271702	0.269223	0.260069	0.245760	0.232766	0.216436	0.197660	0.192372	0.205826	0.213302	0.299175	0.381903	0.434121	0.459520	0.464644	0.468335	0.514224	0.563345	0.584183	0.581141	0.561851	0.553995	0.547808	0.553215	0.548861	0.534784	0.524157	0.504979	0.476987	0.457861	0.433646	0.406045	0.374459	0.356987	0.366355	0.385989	0.421339	0.441241	0.479412	0.502993	0.505481	0.492703	0.469473	0.477335	0.481003	0.470383	0.465096	0.465006	0.496390	0.593532	0.761259	0.845130	0.863932	0.847866	0.810752	0.770694	0.753524	0.751709	0.728083	0.712060	0.709044	0.695600	0.684847	0.667369	0.636137	0.622937	0.631566	0.643803	0.638704	0.621985	0.593934	0.557360	0.515710	0.471338	0.452586	0.431903	0.407130	0.401654	0.390246	0.370783	
100 1
0.000000	0.057790	0.000000	0.000000	0.704216	0.000000	0.088383	0.000000	0.000000	0.078702	1.000000	0.000000	0.000000	0.000000	0.000000	0.000000	0.000000	0.289566	0.000000	0.000000	0.000000	0.000000	0.450929	0.000000	0.120649	0.000000	0.266916	0.000000	0.000000	0.000000	0.644104	0.000000	0.000000	0.000000	0.000000	0.000000	0.525092	0.000000	0.000000	0.000000	0.000000	0.000000	0.000000	0.000000	0.000000	0.051504	0.093851	0.490873	0.188922	0.000000	0.000000	0.000000	0.000000	0.000000	0.000000	0.000000	0.000000	0.000000	0.000000	0.000000	0.000000	0.000000	0.000000	0.229350	0.000000	0.000000	0.000000	0.000000	0.693217	0.000000	0.581962	0.261364	0.000000	0.000000	0.060511	0.000000	0.000000	0.000000	0.000000	0.339555	0.000000	0.000000	0.000000	0.000000	0.309885	0.488896	0.000000	0.000000	0.235628	0.358138	0.000000	0.000000	0.000000	0.000000	0.000000	0.000000	0.000000	0.000000	0.000000	0.000000	
100 1
0.000000	0.013819	0.024461	0.031996	0.197979	0.323628	0.424013	0.486763	0.516898	0.536677	0.609225	0.760526	0.828323	0.836749	0.811352	0.768313	0.716659	0.694128	0.685672	0.660525	0.623983	0.580781	0.591163	0.622341	0.643317	0.645560	0.660598	0.672725	0.660972	0.633073	0.650548	0.719193	0.742106	0.731975	0.701925	0.660623	0.662898	0.703800	0.710214	0.691812	0.658313	0.616170	0.569361	0.520328	0.470604	0.431591	0.410997	0.464989	0.551012	0.608071	0.628270	0.622456	0.599730	0.566464	0.526885	0.483760	0.438929	0.393659	0.348863	0.305236	0.263331	0.223601	0.186412	0.203494	0.214685	0.216791	0.212333	0.202991	0.325128	0.433242	0.567001	0.707178	0.797463	0.822972	0.814598	0.786118	0.742938	0.692112	0.637820	0.625955	0.629537	0.614498	0.586142	0.549465	0.554681	0.614276	0.687086	0.713839	0.732108	0.763971	0.801662	0.798578	0.769544	0.726341	0.675965	0.622336	0.567642	0.513146	0.459628	0.407621	
